# Voltaje_EMG
2.3118
2.3851
2.4927
2.3412
2.4536
2.2874
2.3558
2.4291
2.3069
2.4340
2.4829
2.3705
2.4780
2.4047
2.3851
2.4536
2.4047
2.4780
2.4585
2.4682
2.5073
2.4487
2.5318
2.4487
2.4438
2.5122
2.4242
2.4927
2.5122
2.4878
2.5318
2.4682
2.4438
2.4976
2.4487
2.5073
2.5073
2.4536
2.5513
2.4389
2.4780
2.5171
2.4487
2.5122
2.4976
2.4682
2.5269
2.4633
2.4976
2.5024
2.4389
2.5220
2.4633
2.4780
2.5073
2.4536
2.5024
2.4682
2.4780
2.5513
2.4682
2.4829
2.5171
2.4633
2.5464
2.4633
2.4829
2.5269
2.4536
2.4927
2.4780
2.4780
2.5464
2.4536
2.4829
2.5220
2.4682
2.5367
2.4780
2.4829
2.5318
2.4633
2.5220
2.4927
2.4633
2.5415
2.4536
2.4976
2.5220
2.4438
2.5269
2.4731
2.4731
2.5269
2.4487
2.5220
2.4927
2.4633
2.5464
2.4487
2.4585
2.5220
2.4585
2.5220
2.4682
2.4731
2.5367
2.4536
2.5073
2.4976
2.4487
2.5122
2.4585
2.4780
2.5122
2.4536
2.4878
2.4780
2.4633
2.5367
2.4389
2.5024
2.5024
2.4487
2.5171
2.4536
2.4780
2.5171
2.4487
2.5122
2.4731
2.4633
2.5269
2.4487
2.4927
2.5024
2.4536
2.5367
2.4682
2.4829
2.5171
2.4536
2.5220
2.4878
2.4633
2.5318
2.4487
2.5024
2.4976
2.4536
2.5269
2.4633
2.4682
2.5220
2.4487
2.5073
2.4976
2.4536
2.5318
2.4633
2.4927
2.5024
2.4438
2.5220
2.4682
2.4633
2.5171
2.4438
2.5073
2.4878
2.4585
2.5269
2.4633
2.4829
2.5122
2.4389
2.5171
2.4633
2.4633
2.5220
2.4487
2.4927
2.4731
2.4438
2.5220
2.4438
2.4731
2.5122
2.4242
2.5220
2.4780
2.4731
2.5318
2.4487
2.5024
2.4976
2.4536
2.5367
2.4585
2.4878
2.5220
2.4438
2.5171
2.4829
2.4585
2.5318
2.4487
2.5122
2.4927
2.4536
2.5269
2.4585
2.4829
2.5269
2.4536
2.5171
2.4878
2.4633
2.5318
2.4633
2.4927
2.5024
2.4536
2.5318
2.4731
2.4780
2.5220
2.4536
2.5122
2.4829
2.4585
2.5318
2.4585
2.4976
2.5122
2.4536
2.5269
2.4682
2.4780
2.5513
2.4389
2.5073
2.4976
2.4585
2.5318
2.4585
2.4976
2.5171
2.4487
2.5269
2.4682
2.4731
2.5269
2.4536
2.5122
2.4976
2.4682
2.5367
2.4633
2.4878
2.5122
2.4536
2.5318
2.4780
2.4682
2.5367
2.4536
2.5073
2.4976
2.4585
2.5318
2.4682
2.4829
2.5220
2.4536
2.5220
2.4780
2.4731
2.5367
2.4585
2.5024
2.5024
2.4633
2.5367
2.4633
2.4976
2.5220
2.4536
2.5171
2.4780
2.4585
2.5269
2.4633
2.5024
2.5024
2.4536
2.5367
2.4585
2.4731
2.5269
2.4340
2.5024
2.4682
2.4487
2.5220
2.4438
2.4829
2.5122
2.4682
2.5415
2.4878
2.4878
2.5367
2.4682
2.5220
2.4976
2.4633
2.5367
2.4585
2.4927
2.5220
2.4536
2.5318
2.4682
2.4780
2.5318
2.4536
2.5220
2.4878
2.4536
2.5367
2.4585
2.4927
2.5122
2.4585
2.5318
2.4780
2.4682
2.5318
2.4536
2.5073
2.5024
2.4585
2.5367
2.4585
2.4878
2.5122
2.4536
2.5269
2.4829
2.4682
2.5318
2.4487
2.5073
2.5024
2.4487
2.5318
2.4633
2.4780
2.5171
2.4487
2.5220
2.4780
2.4633
2.5318
2.4536
2.4976
2.5024
2.4585
2.5318
2.4731
2.4780
2.5220
2.4487
2.5122
2.4927
2.4633
2.5415
2.4536
2.4976
2.5024
2.4585
2.5367
2.4633
2.4780
2.5171
2.4487
2.5171
2.4780
2.4536
2.5415
2.4536
2.4976
2.5024
2.4536
2.5269
2.4682
2.4731
2.5269
2.4536
2.5073
2.4878
2.4633
2.5318
2.4536
2.4878
2.5171
2.4536
2.5318
2.4731
2.4731
2.5269
2.4487
2.5073
2.4976
2.4536
2.5318
2.4487
2.4633
2.4976
2.4438
2.5073
2.4633
2.4585
2.5171
2.4389
2.5073
2.4976
2.4633
2.5367
2.4633
2.4878
2.5171
2.4585
2.5220
2.4780
2.4682
2.5318
2.4536
2.5024
2.4976
2.4585
2.5367
2.4682
2.4780
2.5220
2.4487
2.5220
2.4829
2.4585
2.5269
2.4536
2.4976
2.4927
2.4536
2.5318
2.4633
2.4731
2.5220
2.4536
2.5171
2.4780
2.4585
2.5318
2.4487
2.4927
2.5024
2.4536
2.5269
2.4633
2.4780
2.5220
2.4536
2.5073
2.4780
2.4585
2.5318
2.4633
2.4878
2.5073
2.4487
2.5318
2.4682
2.4731
2.5269
2.4487
2.5171
2.4878
2.4536
2.5318
2.4585
2.4829
2.5122
2.4536
2.5220
2.4633
2.4682
2.5220
2.4438
2.5024
2.4829
2.4585
2.5220
2.4487
2.4829
2.5122
2.4585
2.5318
2.4731
2.4633
2.5318
2.4340
2.5073
2.4927
2.4536
2.5269
2.4633
2.4829
2.5122
2.4487
2.5171
2.4731
2.4536
2.5220
2.4438
2.4927
2.4927
2.4487
2.5269
2.4633
2.4780
2.5269
2.4487
2.5171
2.4731
2.4731
2.5122
2.4340
2.4927
2.4927
2.4438
2.5269
2.4389
2.4585
2.5269
2.4487
2.5171
2.4829
2.4633
2.5269
2.4536
2.4976
2.5073
2.4487
2.5269
2.4633
2.4829
2.5269
2.4536
2.5122
2.4927
2.4633
2.5318
2.4487
2.4927
2.5073
2.4487
2.5269
2.4585
2.4731
2.5220
2.4438
2.5171
2.4878
2.4633
2.5318
2.4536
2.4878
2.5171
2.4487
2.5171
2.4682
2.4682
2.5269
2.4487
2.5024
2.4829
2.4536
2.5367
2.4585
2.4927
2.5122
2.4487
2.5269
2.4682
2.4633
2.5220
2.4487
2.5024
2.4829
2.4487
2.5318
2.4536
2.4927
2.5122
2.4438
2.5171
2.4682
2.4731
2.5269
2.4438
2.5073
2.4927
2.4536
2.5269
2.4536
2.4731
2.5171
2.4487
2.5122
2.4682
2.4682
2.5318
2.4438
2.4976
2.4976
2.4536
2.5318
2.4536
2.4780
2.5269
2.4438
2.5122
2.4780
2.4585
2.5269
2.4536
2.4878
2.4976
2.4536
2.5318
2.4682
2.4731
2.5220
2.4438
2.5073
2.4731
2.4731
2.5269
2.4487
2.4927
2.5122
2.4536
2.5269
2.4487
2.4536
2.5073
2.4389
2.5024
2.4731
2.4487
2.5122
2.4633
2.4976
2.5122
2.4536
2.5269
2.4682
2.4731
2.5220
2.4536
2.5171
2.4878
2.4536
2.5318
2.4585
2.4976
2.5220
2.4585
2.5171
2.4731
2.4731
2.5367
2.4487
2.4976
2.4829
2.4633
2.5318
2.4487
2.4878
2.5269
2.4438
2.5220
2.4633
2.4536
2.5318
2.4487
2.4976
2.4927
2.4585
2.5220
2.4682
2.4633
2.4976
2.4487
2.5122
2.4682
2.4682
2.5367
2.4389
2.4878
2.4878
2.4585
2.5269
2.4585
2.4829
2.5171
2.4536
2.5562
2.4927
2.4682
2.5415
2.4389
2.5318
2.4829
2.4829
2.5611
2.4633
2.4976
2.5269
2.4780
2.5904
2.4829
2.5024
2.5415
2.5464
2.5318
2.4438
2.4340
2.6100
2.5758
2.5122
2.5171
2.4682
2.5904
2.5269
2.5122
2.6491
2.5660
2.7077
2.6833
2.5660
2.5220
2.6442
2.4585
2.6931
2.5318
2.6246
2.6686
2.5269
2.5758
2.5464
2.4194
2.3998
2.4047
2.5758
2.4389
2.4633
2.6100
2.4340
2.5024
2.7615
2.5513
2.3021
2.4047
2.5122
2.5171
2.3949
2.4438
2.4927
2.3363
2.5171
2.4682
2.4242
2.4536
2.5024
2.3949
2.4194
2.6833
2.4487
2.4438
2.4438
2.3021
2.5709
2.5318
2.2385
2.5220
2.2923
2.3265
2.4927
2.4047
2.3656
2.5269
2.3705
2.4047
2.5220
2.3363
2.4194
2.3460
2.4731
2.3754
2.3754
2.5220
2.3412
2.4145
2.4487
2.2678
2.4633
2.4145
2.4096
2.5318
2.4194
2.4633
2.4194
2.3558
2.4682
2.3900
2.4487
2.4927
2.4096
2.4927
2.4829
2.4291
2.5269
2.4242
2.4829
2.5171
2.4487
2.4829
2.4780
2.4976
2.5220
2.4389
2.5024
2.4976
2.4438
2.5415
2.4682
2.4976
2.5269
2.4682
2.5415
2.4878
2.4536
2.5513
2.4536
2.5220
2.4976
2.4731
2.5318
2.4682
2.5073
2.5269
2.4633
2.5415
2.4878
2.4829
2.5464
2.4487
2.5171
2.5122
2.4780
2.5367
2.4731
2.4927
2.5318
2.4633
2.5122
2.4878
2.4731
2.5415
2.4487
2.5171
2.5024
2.4585
2.5464
2.4731
2.4633
2.5220
2.4536
2.5367
2.4340
2.4585
2.5269
2.4487
2.4829
2.4976
2.4438
2.5220
2.4780
2.4878
2.5415
2.4389
2.5122
2.4780
2.4633
2.5367
2.4487
2.4976
2.5073
2.4536
2.5269
2.4585
2.4682
2.5220
2.4487
2.5073
2.4780
2.4536
2.5220
2.4438
2.4878
2.4976
2.4389
2.5220
2.4731
2.4585
2.5171
2.4389
2.5024
2.4780
2.4487
2.5220
2.4438
2.4927
2.5073
2.4438
2.5171
2.4682
2.4633
2.5220
2.4389
2.5024
2.4878
2.4633
2.5318
2.4536
2.4878
2.5122
2.4536
2.5220
2.4682
2.4633
2.5269
2.4438
2.5024
2.4976
2.4536
2.5269
2.4487
2.4780
2.5024
2.4389
2.5220
2.4682
2.4633
2.5318
2.4536
2.5024
2.4976
2.4438
2.5318
2.4487
2.4829
2.5269
2.4487
2.5220
2.4829
2.4633
2.5367
2.4242
2.4780
2.5122
2.4585
2.5318
2.4633
2.4780
2.5318
2.4487
2.5269
2.4780
2.4633
2.5367
2.4536
2.5024
2.5122
2.4536
2.5318
2.4633
2.4731
2.5318
2.4438
2.5171
2.4829
2.4585
2.5513
2.4389
2.4878
2.5073
2.4389
2.5122
2.4585
2.4731
2.5171
2.4340
2.4976
2.4829
2.4633
2.5367
2.4585
2.5024
2.5122
2.4487
2.5269
2.4780
2.4780
2.5367
2.4536
2.5122
2.4927
2.4633
2.5367
2.4536
2.4878
2.5171
2.4633
2.5269
2.4780
2.4731
2.5367
2.4438
2.5122
2.4976
2.4585
2.5318
2.4633
2.4878
2.5171
2.4487
2.5171
2.4780
2.4682
2.5367
2.4487
2.4927
2.4927
2.4536
2.5269
2.4585
2.4829
2.5318
2.4487
2.5171
2.4780
2.4585
2.5318
2.4585
2.4976
2.5024
2.4536
2.5318
2.4585
2.4731
2.5269
2.4487
2.5220
2.4829
2.4633
2.5318
2.4536
2.5073
2.5024
2.4536
2.5269
2.4682
2.4731
2.5269
2.4585
2.5171
2.4878
2.4585
2.5318
2.4536
2.4878
2.5073
2.4536
2.5367
2.4682
2.4731
2.5318
2.4536
2.5122
2.4927
2.4633
2.5367
2.4585
2.4927
2.5122
2.4536
2.5269
2.4780
2.4682
2.5318
2.4536
2.5024
2.4976
2.4536
2.5367
2.4536
2.4829
2.5073
2.4487
2.5269
2.4780
2.4585
2.5318
2.4487
2.4927
2.4878
2.4389
2.5171
2.4536
2.4780
2.5122
2.4242
2.5318
2.4878
2.4731
2.5464
2.4536
2.5122
2.5024
2.4487
2.5367
2.4585
2.4780
2.5220
2.4487
2.5220
2.4780
2.4585
2.5415
2.4487
2.4976
2.5024
2.4536
2.5269
2.4585
2.4878
2.5269
2.4585
2.5220
2.4829
2.4633
2.5318
2.4585
2.4976
2.5073
2.4536
2.5318
2.4682
2.4682
2.5318
2.4438
2.5122
2.4878
2.4585
2.5464
2.4487
2.4878
2.5122
2.4487
2.5269
2.4633
2.4682
2.5269
2.4487
2.5122
2.4927
2.4536
2.5318
2.4536
2.4878
2.5073
2.4438
2.5269
2.4829
2.4682
2.5318
2.4536
2.5073
2.4976
2.4633
2.5269
2.4536
2.4780
2.5171
2.4487
2.5220
2.4291
2.4780
2.5367
2.4389
2.5122
2.5024
2.4633
2.5415
2.4633
2.4829
2.5269
2.4536
2.5171
2.4731
2.4585
2.5220
2.4487
2.5024
2.5073
2.4487
2.5415
2.4585
2.4780
2.5269
2.4487
2.5122
2.4780
2.4633
2.5318
2.4487
2.4976
2.4976
2.4487
2.5269
2.4633
2.4731
2.5122
2.4340
2.5073
2.4633
2.4438
2.5269
2.4291
2.4633
2.5122
2.4536
2.5367
2.4731
2.4731
2.5220
2.4487
2.5220
2.4829
2.4585
2.5367
2.4633
2.4976
2.5171
2.4438
2.5220
2.4682
2.4829
2.5269
2.4487
2.5024
2.4927
2.4536
2.5318
2.4487
2.4829
2.5122
2.4487
2.5269
2.4633
2.4633
2.5269
2.4487
2.5024
2.4927
2.4438
2.5318
2.4487
2.4780
2.5171
2.4438
2.5171
2.4731
2.4585
2.5269
2.4536
2.4976
2.4976
2.4438
2.5318
2.4536
2.4780
2.5220
2.4536
2.5122
2.4731
2.4682
2.5318
2.4536
2.4927
2.5073
2.4536
2.5269
2.4585
2.4731
2.5171
2.4438
2.5122
2.4780
2.4633
2.5415
2.4536
2.4927
2.5073
2.4487
2.5318
2.4536
2.4682
2.5269
2.4438
2.5122
2.4829
2.4585
2.5318
2.4536
2.4878
2.5073
2.4487
2.5269
2.4682
2.4731
2.5318
2.4438
2.5024
2.4878
2.4585
2.5318
2.4487
2.4878
2.5122
2.4438
2.5269
2.4585
2.4633
2.5269
2.4438
2.5024
2.4829
2.4487
2.5318
2.4487
2.4633
2.5024
2.4340
2.5073
2.4536
2.4536
2.5122
2.4487
2.5122
2.4976
2.4585
2.5367
2.4585
2.4780
2.5171
2.4438
2.5220
2.4780
2.4633
2.5415
2.4438
2.5024
2.5024
2.4487
2.5318
2.4585
2.4780
2.5220
2.4536
2.5073
2.4682
2.4633
2.5415
2.4438
2.5024
2.5073
2.4487
2.5367
2.4633
2.4731
2.5220
2.4487
2.5122
2.4780
2.4585
2.5367
2.4487
2.4927
2.5122
2.4487
2.5269
2.4682
2.4731
2.5269
2.4438
2.5122
2.4927
2.4585
2.5318
2.4487
2.4878
2.5073
2.4487
2.5220
2.4682
2.4682
2.5318
2.4487
2.5073
2.4927
2.4438
2.5318
2.4487
2.4780
2.5073
2.4487
2.5220
2.4633
2.4633
2.5269
2.4438
2.5073
2.4927
2.4536
2.5318
2.4487
2.4829
2.5171
2.4487
2.5220
2.4731
2.4585
2.5318
2.4536
2.4976
2.4927
2.4487
2.5318
2.4585
2.4829
2.5220
2.4438
2.5318
2.4731
2.4585
2.5367
2.4438
2.4976
2.4976
2.4536
2.5318
2.4536
2.4829
2.5269
2.4487
2.5220
2.4780
2.4633
2.5220
2.4438
2.4829
2.5024
2.4487
2.5171
2.4536
2.4682
2.5415
2.4585
2.5220
2.4927
2.4585
2.5269
2.4438
2.4927
2.5024
2.4389
2.5122
2.4633
2.4633
2.5220
2.4340
2.5024
2.4731
2.4487
2.5318
2.4487
2.4878
2.5024
2.4389
2.5269
2.4585
2.4585
2.5171
2.4389
2.5073
2.4878
2.4536
2.5269
2.4585
2.4780
2.5220
2.4536
2.5220
2.4731
2.4731
2.5367
2.4487
2.5073
2.5024
2.4487
2.5464
2.4780
2.4780
2.5073
2.4438
2.5122
2.4731
2.4585
2.5562
2.4585
2.5464
2.4976
2.4340
2.5171
2.4340
2.4780
2.5269
2.4731
2.5122
2.4829
2.4829
2.5269
2.4487
2.5073
2.4829
2.4291
2.5318
2.4242
2.4927
2.5318
2.4731
2.4927
2.4976
2.4780
2.5367
2.4389
2.4487
2.5464
2.4487
2.5464
2.4536
2.5073
2.5709
2.4731
2.5513
2.5171
2.5464
2.5171
2.5171
2.4585
2.5562
2.4731
2.6295
2.5171
2.4731
2.5367
2.5709
2.6051
2.4487
2.5758
2.5660
2.5953
2.6246
2.4780
2.5855
2.5806
2.4242
2.5464
2.4731
2.3949
2.4194
2.7224
2.5024
2.4731
2.5464
2.6344
2.4047
2.3363
2.7028
2.6491
2.4682
2.4878
2.4780
2.4829
2.5122
2.3754
2.4585
2.3754
2.4585
2.5024
2.3656
2.5660
2.4047
2.4291
2.4145
2.4194
2.4780
2.4096
2.4291
2.4242
2.3998
2.4145
2.4242
2.4829
2.5073
2.4682
2.3754
2.3851
2.5220
2.5171
2.5611
2.3363
2.4585
2.4731
2.4927
2.5855
2.3216
2.5513
2.5318
2.4731
2.5855
2.3656
2.4340
2.3656
2.4194
2.4682
2.4291
2.5367
2.4536
2.4242
2.4145
2.3900
2.3656
2.4829
2.3803
2.4194
2.5122
2.4194
2.4536
2.3949
2.3949
2.4927
2.4047
2.4340
2.4731
2.4291
2.5220
2.3754
2.4878
2.4829
2.4389
2.4976
2.4829
2.4389
2.5269
2.4389
2.4976
2.4927
2.4682
2.5415
2.4829
2.4976
2.5171
2.4585
2.5171
2.4927
2.4633
2.5464
2.4780
2.5269
2.5024
2.4731
2.5513
2.4633
2.4927
2.5367
2.4682
2.5318
2.4878
2.4731
2.5415
2.4487
2.5073
2.5073
2.4536
2.5464
2.4585
2.4780
2.5318
2.4536
2.5171
2.4731
2.4780
2.5513
2.4633
2.4927
2.5171
2.4585
2.5367
2.4780
2.4731
2.5513
2.4438
2.5122
2.4976
2.4536
2.5318
2.4536
2.4878
2.5122
2.4438
2.5220
2.4731
2.4682
2.5269
2.4487
2.5073
2.4976
2.4487
2.5269
2.4536
2.4829
2.5220
2.4487
2.5171
2.4780
2.4585
2.5367
2.4438
2.4927
2.4927
2.4487
2.5220
2.4487
2.4682
2.5122
2.4340
2.5122
2.4731
2.4585
2.5269
2.4438
2.4878
2.4976
2.4438
2.5220
2.4487
2.4731
2.5220
2.4340
2.5073
2.4780
2.4536
2.5318
2.4487
2.4829
2.5122
2.4438
2.5220
2.4585
2.4682
2.5269
2.4389
2.4976
2.4829
2.4438
2.5318
2.4438
2.4878
2.5122
2.4487
2.5269
2.4633
2.4731
2.5269
2.4438
2.5073
2.4976
2.4536
2.5318
2.4585
2.4829
2.5122
2.4438
2.5220
2.4633
2.4633
2.5269
2.4438
2.5024
2.4976
2.4585
2.5367
2.4536
2.4780
2.5024
2.4438
2.5171
2.4780
2.4633
2.5367
2.4487
2.4976
2.4927
2.4438
2.5269
2.4536
2.4780
2.5122
2.4340
2.5220
2.5024
2.4829
2.5318
2.4585
2.5024
2.5171
2.4438
2.5318
2.4682
2.4780
2.5269
2.4487
2.5171
2.4927
2.4682
2.5318
2.4536
2.4927
2.5171
2.4487
2.5220
2.4633
2.4829
2.5171
2.4438
2.5073
2.4878
2.4487
2.5318
2.4536
2.4878
2.5122
2.4487
2.5269
2.4780
2.4731
2.5415
2.4487
2.5122
2.4927
2.4536
2.5318
2.4585
2.4878
2.5122
2.4487
2.5220
2.4682
2.4682
2.5318
2.4536
2.5122
2.5024
2.4487
2.5269
2.4585
2.4780
2.5171
2.4487
2.5269
2.4731
2.4682
2.5415
2.4536
2.4976
2.4976
2.4487
2.5318
2.4585
2.4682
2.5367
2.4438
2.5220
2.4829
2.4633
2.5318
2.4536
2.5024
2.5073
2.4487
2.5269
2.4731
2.4780
2.5318
2.4438
2.5171
2.4878
2.4536
2.5269
2.4487
2.4927
2.5073
2.4487
2.5269
2.4536
2.4731
2.5318
2.4536
2.5171
2.4878
2.4487
2.5220
2.4585
2.4976
2.5122
2.4438
2.5171
2.4633
2.4731
2.5269
2.4291
2.4927
2.4780
2.4438
2.5269
2.4585
2.4633
2.5171
2.4633
2.5367
2.4780
2.4682
2.5415
2.4633
2.5122
2.4976
2.4585
2.5415
2.4585
2.4829
2.5367
2.4536
2.5220
2.4780
2.4682
2.5367
2.4585
2.5024
2.5073
2.4585
2.5415
2.4536
2.4731
2.5269
2.4438
2.5122
2.4780
2.4585
2.5367
2.4585
2.4878
2.5024
2.4536
2.5269
2.4731
2.4731
2.5269
2.4487
2.5122
2.4976
2.4633
2.5269
2.4585
2.4927
2.5122
2.4536
2.5269
2.4682
2.4731
2.5367
2.4438
2.5171
2.4878
2.4536
2.5220
2.4487
2.4829
2.5122
2.4487
2.5220
2.4731
2.4633
2.5269
2.4438
2.5073
2.4878
2.4585
2.5367
2.4585
2.4927
2.5122
2.4438
2.5220
2.4731
2.4780
2.5269
2.4487
2.4927
2.4976
2.4585
2.5269
2.4585
2.4829
2.5220
2.4389
2.5122
2.4780
2.4585
2.5415
2.4487
2.4976
2.4927
2.4487
2.5220
2.4536
2.4780
2.5171
2.4536
2.5073
2.4780
2.4633
2.5318
2.4536
2.4829
2.5073
2.4438
2.5318
2.4633
2.4487
2.5073
2.4194
2.5073
2.4780
2.4487
2.5171
2.4389
2.4976
2.5122
2.4585
2.5318
2.4682
2.4682
2.5269
2.4438
2.5024
2.4927
2.4585
2.5367
2.4536
2.4927
2.5122
2.4487
2.5269
2.4633
2.4682
2.5269
2.4585
2.5073
2.5024
2.4585
2.5269
2.4585
2.4829
2.5122
2.4438
2.5220
2.4780
2.4633
2.5318
2.4487
2.5024
2.4927
2.4536
2.5269
2.4536
2.4682
2.5171
2.4438
2.5171
2.4731
2.4633
2.5318
2.4438
2.4927
2.4976
2.4536
2.5318
2.4585
2.4731
2.5269
2.4536
2.5122
2.4780
2.4585
2.5318
2.4536
2.4927
2.5122
2.4536
2.5367
2.4731
2.4829
2.5220
2.4389
2.5122
2.4927
2.4536
2.5318
2.4585
2.4927
2.5122
2.4487
2.5171
2.4633
2.4731
2.5220
2.4536
2.5024
2.4927
2.4585
2.5318
2.4536
2.4829
2.5122
2.4487
2.5269
2.4731
2.4633
2.5318
2.4536
2.5073
2.4927
2.4585
2.5415
2.4536
2.4829
2.5122
2.4487
2.5171
2.4731
2.4633
2.5269
2.4438
2.4927
2.5122
2.4487
2.5122
2.4438
2.4585
2.5122
2.4438
2.4976
2.4829
2.4291
2.5415
2.4536
2.5171
2.5122
2.4633
2.5415
2.4633
2.4927
2.5318
2.4487
2.5220
2.4780
2.4585
2.5269
2.4585
2.4878
2.5073
2.4487
2.5269
2.4682
2.4633
2.5318
2.4438
2.5171
2.4878
2.4633
2.5318
2.4438
2.4878
2.4976
2.4487
2.5171
2.4780
2.4780
2.5220
2.4487
2.5024
2.4927
2.4633
2.5464
2.4536
2.4927
2.5171
2.4487
2.5220
2.4682
2.4731
2.5269
2.4487
2.5024
2.4878
2.4585
2.5269
2.4536
2.4878
2.5122
2.4487
2.5220
2.4633
2.4633
2.5269
2.4438
2.5024
2.4927
2.4585
2.5318
2.4585
2.4829
2.5171
2.4487
2.5171
2.4829
2.4633
2.5318
2.4438
2.4976
2.4976
2.4536
2.5318
2.4585
2.4731
2.5269
2.4487
2.5171
2.4780
2.4585
2.5318
2.4536
2.4878
2.5024
2.4438
2.5220
2.4633
2.4731
2.5318
2.4389
2.5073
2.4878
2.4585
2.5318
2.4536
2.4878
2.5122
2.4487
2.5220
2.4682
2.4731
2.5269
2.4487
2.5073
2.4829
2.4438
2.5171
2.4389
2.4731
2.5122
2.4389
2.5171
2.4829
2.4829
2.5367
2.4536
2.5122
2.5024
2.4585
2.5367
2.4682
2.4829
2.5171
2.4487
2.5220
2.4780
2.4585
2.5318
2.4438
2.4976
2.5024
2.4536
2.5318
2.4633
2.4731
2.5220
2.4438
2.5171
2.4731
2.4682
2.5318
2.4536
2.4927
2.5024
2.4487
2.5318
2.4585
2.4731
2.5171
2.4536
2.5073
2.4878
2.4585
2.5367
2.4585
2.4927
2.5122
2.4585
2.5220
2.4682
2.4682
2.5220
2.4438
2.5122
2.4878
2.4633
2.5269
2.4536
2.4829
2.5122
2.4487
2.5269
2.4682
2.4682
2.5269
2.4438
2.4976
2.4878
2.4536
2.5269
2.4585
2.5024
2.5073
2.4536
2.5220
2.4780
2.4731
2.5269
2.4487
2.4927
2.4976
2.4536
2.5220
2.4585
2.4731
2.5171
2.4389
2.5269
2.4780
2.4633
2.5269
2.4438
2.4976
2.4976
2.4536
2.5269
2.4585
2.4731
2.5171
2.4536
2.5122
2.4829
2.4633
2.5318
2.4438
2.4976
2.5073
2.4340
2.5318
2.4487
2.4682
2.5171
2.4438
2.4976
2.4585
2.4536
2.5171
2.4438
2.4829
2.4780
2.4585
2.5171
2.4731
2.4682
2.5367
2.4536
2.5122
2.4976
2.4487
2.5464
2.4585
2.4927
2.5220
2.4487
2.5269
2.4633
2.4633
2.5171
2.4487
2.5073
2.5024
2.4682
2.5220
2.4633
2.4829
2.5073
2.4780
2.5562
2.4585
2.4487
2.5171
2.4340
2.4878
2.4829
2.4682
2.5415
2.4536
2.4780
2.5171
2.4438
2.5220
2.4878
2.4829
2.5415
2.4536
2.5073
2.5073
2.4536
2.5073
2.4487
2.4731
2.5122
2.4682
2.5269
2.5122
2.4438
2.5220
2.4927
2.4536
2.4878
2.4242
2.5464
2.4780
2.4829
2.5269
2.4829
2.5611
2.4927
2.5269
2.4927
2.4585
2.5611
2.6100
2.3851
2.5758
2.4389
2.5464
2.5660
2.5562
2.5220
2.5073
2.4487
2.5709
2.6100
2.5562
2.6197
2.4878
2.5806
2.5024
2.5611
2.6002
2.4976
2.6197
2.5024
2.5318
2.5269
2.4829
2.6149
2.4487
2.5904
2.4878
2.4438
2.5367
2.5318
2.6149
2.3998
2.5367
2.5318
2.4194
2.3754
2.3754
2.4780
2.4682
2.5367
2.3705
2.4682
2.6540
2.3167
2.5758
2.3558
2.5318
2.4976
2.4242
2.5122
2.5758
2.3509
2.4780
2.4389
2.4438
2.3363
2.5464
2.4976
2.4047
2.3949
2.4389
2.4340
2.5953
2.4145
2.3998
2.3949
2.4878
2.3705
2.5855
2.2825
2.3363
2.6979
2.4829
2.3607
2.4194
2.5024
2.4829
2.4145
2.4291
2.5415
2.4242
2.3754
2.4047
2.5367
2.5709
2.5073
2.4047
2.3363
2.3412
2.5073
2.3558
2.6882
2.3412
2.3705
2.5464
2.4976
2.3998
2.4340
2.3851
2.5806
2.4780
2.2972
2.4438
2.3900
2.3900
2.3803
2.5562
2.4487
2.3998
2.3754
2.4194
2.3998
2.4633
2.3754
2.4438
2.5318
2.3949
2.4780
2.4340
2.3900
2.4536
2.4487
2.4487
2.5024
2.4487
2.4927
2.4780
2.4487
2.5220
2.4585
2.4438
2.5073
2.4633
2.5513
2.4829
2.4682
2.5415
2.4682
2.5269
2.5024
2.4829
2.5318
2.4927
2.5318
2.5415
2.4682
2.5562
2.4878
2.4829
2.5513
2.4633
2.5220
2.5269
2.4731
2.5269
2.4585
2.4878
2.5220
2.4633
2.5122
2.4682
2.4487
2.5171
2.4682
2.5073
2.5122
2.4780
2.5415
2.4682
2.4927
2.5220
2.4585
2.5318
2.4731
2.4585
2.5415
2.4633
2.5073
2.5122
2.4682
2.5367
2.4682
2.4878
2.5318
2.4633
2.5171
2.4878
2.4536
2.5367
2.4536
2.5024
2.5024
2.4487
2.5269
2.4633
2.4829
2.5367
2.4487
2.5171
2.4829
2.4585
2.5318
2.4536
2.4829
2.5024
2.4389
2.5122
2.4536
2.4585
2.5220
2.4389
2.4976
2.4633
2.4438
2.5318
2.4536
2.4780
2.5073
2.4389
2.5122
2.4731
2.4585
2.5269
2.4438
2.4976
2.4780
2.4487
2.5318
2.4487
2.4682
2.5073
2.4389
2.5073
2.4633
2.4585
2.5220
2.4438
2.4976
2.4829
2.4487
2.5220
2.4438
2.4682
2.5024
2.4389
2.5122
2.4829
2.4780
2.5464
2.4633
2.5269
2.5220
2.4780
2.5513
2.4927
2.5073
2.5513
2.4682
2.5367
2.4927
2.4780
2.5367
2.4682
2.5024
2.5171
2.4536
2.5464
2.4731
2.4878
2.5220
2.4487
2.5073
2.4878
2.4438
2.5220
2.4291
2.4780
2.4927
2.4438
2.5073
2.4340
2.4780
2.5318
2.4536
2.5171
2.4927
2.4585
2.5318
2.4585
2.4927
2.5220
2.4536
2.5220
2.4780
2.4682
2.5220
2.4438
2.5024
2.4878
2.4536
2.5318
2.4487
2.4780
2.5073
2.4340
2.5220
2.4585
2.4585
2.5171
2.4340
2.4927
2.4878
2.4340
2.5171
2.4389
2.4633
2.5024
2.4291
2.5073
2.4682
2.4585
2.5220
2.4438
2.5024
2.4976
2.4585
2.5318
2.4731
2.4829
2.5269
2.4487
2.5171
2.4927
2.4731
2.5367
2.4682
2.5024
2.5171
2.4585
2.5415
2.4682
2.4927
2.5269
2.4780
2.5073
2.4927
2.4780
2.5464
2.4633
2.5122
2.5171
2.4682
2.5367
2.4878
2.4878
2.5415
2.4585
2.5171
2.4976
2.4780
2.5367
2.4731
2.5024
2.5269
2.4536
2.5464
2.4780
2.4682
2.5269
2.4585
2.4976
2.4976
2.4487
2.5415
2.4487
2.4878
2.5122
2.4633
2.5171
2.4731
2.4633
2.5318
2.4438
2.4976
2.4829
2.4536
2.5122
2.4536
2.4682
2.5171
2.4487
2.5024
2.4487
2.4487
2.5073
2.4536
2.4731
2.4927
2.4194
2.5318
2.4585
2.4780
2.5171
2.4487
2.5122
2.4878
2.4585
2.5367
2.4487
2.4927
2.5024
2.4487
2.5269
2.4682
2.4829
2.5318
2.4536
2.5171
2.4829
2.4633
2.5269
2.4487
2.4878
2.5122
2.4536
2.5367
2.4731
2.4682
2.5220
2.4585
2.5024
2.4829
2.4536
2.5269
2.4585
2.4927
2.5122
2.4438
2.5220
2.4682
2.4731
2.5269
2.4536
2.5024
2.4927
2.4585
2.5318
2.4536
2.4878
2.5122
2.4536
2.5171
2.4780
2.4633
2.5415
2.4389
2.5073
2.4976
2.4633
2.5220
2.4633
2.4780
2.5171
2.4536
2.5220
2.4731
2.4585
2.5269
2.4487
2.4927
2.5073
2.4536
2.5318
2.4633
2.4878
2.5269
2.4487
2.5122
2.4878
2.4633
2.5415
2.4487
2.5024
2.5073
2.4536
2.5269
2.4682
2.4780
2.5318
2.4536
2.5171
