# Voltaje_EMG
2.3900
2.4780
2.4145
2.4633
2.4927
2.4340
2.5171
2.4682
2.4536
2.5024
2.4291
2.4976
2.4829
2.4389
2.5073
2.4585
2.4878
2.4976
2.4389
2.5269
2.4585
2.4682
2.5220
2.4585
2.5073
2.5024
2.4438
2.5171
2.4731
2.5171
2.5562
2.4829
2.5513
2.5318
2.4731
2.5318
2.4438
2.4633
2.4731
2.3998
2.4976
2.4340
2.3803
2.5806
3.0156
3.0743
2.3754
2.3167
2.4389
2.3607
2.3949
2.4145
2.3705
2.4487
2.4096
2.4389
2.4878
2.4242
2.4927
2.4976
2.4389
2.5171
2.4487
2.5122
2.5415
2.4829
2.5855
2.5513
2.5611
2.6051
2.5367
2.5904
2.5122
2.4438
2.4731
2.3900
2.3900
2.4047
2.3460
2.4145
2.4145
2.3998
2.4585
2.3998
2.4731
2.4682
2.4291
2.5024
2.4438
2.4829
2.4976
2.4340
2.5073
2.4731
2.4536
2.5122
2.4340
2.4878
2.4927
2.4389
2.5122
2.4487
2.4585
2.5024
2.4389
2.4976
2.4829
2.4585
2.5122
2.4389
2.4878
2.4927
2.4487
2.5122
2.4633
2.4878
2.5367
2.4682
2.5611
2.5269
2.4927
2.5367
2.4682
2.4878
2.4731
2.4194
2.5024
2.4438
2.4389
2.4047
2.5073
3.0743
3.0352
2.3412
2.3656
2.3558
2.3900
2.4242
2.3705
2.4487
2.4194
2.4145
2.4780
2.4242
2.4927
2.4927
2.4487
2.5220
2.4829
2.5220
2.5415
2.4829
2.5709
2.5562
2.5562
2.6197
2.5464
2.6051
2.5806
2.4927
2.5367
2.4389
2.4340
2.4340
2.3558
2.4340
2.3949
2.3754
2.4536
2.3949
2.4487
2.4731
2.4242
2.5122
2.4536
2.4633
2.5073
2.4340
2.5122
2.4829
2.4389
2.5220
2.4340
2.4731
2.4829
2.4242
2.5024
2.4585
2.4682
2.5122
2.4242
2.4780
2.4633
2.4389
2.5220
2.4682
2.4731
2.4731
2.4633
2.5122
2.4633
2.4829
2.5220
2.4487
2.5171
2.5122
2.4829
2.5513
2.5024
2.5220
2.5318
2.4585
2.4927
2.4438
2.4487
2.4829
2.4194
2.4194
2.4927
2.7859
3.2551
2.6051
2.3021
2.3998
2.3412
2.4242
2.3998
2.3754
2.4536
2.3851
2.4487
2.4682
2.4242
2.5073
2.4780
2.4927
2.5318
2.4682
2.5709
2.5269
2.4976
2.5806
2.5709
2.5806
2.6002
2.5415
2.6002
2.5415
2.5073
2.5073
2.3949
2.4487
2.4194
2.3803
2.4291
2.3705
2.4194
2.4340
2.3803
2.4829
2.4291
2.4536
2.5269
2.4242
2.4780
2.4682
2.4389
2.5122
2.4487
2.5024
2.4927
2.4242
2.5073
2.4829
2.4682
2.5073
2.4194
2.4927
2.4829
2.4291
2.5122
2.4682
2.4927
2.5220
2.4389
2.5367
2.5073
2.4633
2.5367
2.4878
2.5415
2.5464
2.4878
2.5806
2.4976
2.4976
2.5073
2.4145
2.5024
2.4438
2.4438
2.4829
2.3607
2.5953
3.1525
2.9326
2.3705
2.3412
2.3656
2.3949
2.3412
2.4096
2.3998
2.3900
2.4731
2.3851
2.4633
2.4976
2.4291
2.5171
2.4780
2.4829
2.5269
2.4927
2.5415
2.5415
2.5122
2.6002
2.5464
2.5904
2.6002
2.5171
2.5513
2.4780
2.4389
2.4633
2.3705
2.3803
2.3803
2.3167
2.4242
2.3656
2.4096
2.4438
2.3851
2.4780
2.4585
2.4291
2.4976
2.4291
2.4976
2.4633
2.4291
2.5073
2.4633
2.4731
2.5220
2.4194
2.5024
2.4829
2.4340
2.5024
2.4242
2.4927
2.5073
2.4438
2.5269
2.4585
2.4487
2.4927
2.4487
2.5269
2.5318
2.4878
2.5709
2.5073
2.5220
2.5024
2.4242
2.4976
2.4487
2.4389
2.5220
2.3998
2.4291
2.6246
3.1085
2.9570
2.2923
2.3460
2.4291
2.3558
2.4487
2.4096
2.3900
2.4536
2.3949
2.4682
2.4633
2.4145
2.5122
2.4585
2.4731
2.5220
2.4633
2.5367
2.4976
2.5073
2.6002
2.5269
2.5855
2.5904
2.5269
2.6002
2.5122
2.4682
2.4829
2.3851
2.4389
2.3900
2.3851
2.4487
2.3949
2.4194
2.4389
2.3900
2.4878
2.4291
2.4389
2.4878
2.4291
2.5122
2.4780
2.4438
2.5024
2.4438
2.4927
2.4927
2.4291
2.5024
2.4633
2.4731
2.5367
2.4487
2.5073
2.4976
2.4585
2.5318
2.4878
2.5367
2.5611
2.5024
2.5464
2.4927
2.4731
2.5122
2.4291
2.4878
2.4731
2.4291
2.4438
2.4291
2.7566
3.2502
2.6784
2.3265
2.3754
2.3607
2.4242
2.3607
2.4438
2.4340
2.4047
2.4780
2.4340
2.4780
2.5122
2.4389
2.5073
2.4878
2.4731
2.5464
2.4829
2.5415
2.5709
2.5220
2.6100
2.5513
2.5709
2.6002
2.5024
2.5269
2.4780
2.4145
2.4585
2.3803
2.4145
2.4291
2.3851
2.4780
2.3949
2.3998
2.4878
2.4194
2.4829
2.4878
2.4389
2.5122
2.4487
2.4682
2.4976
2.4242
2.5073
2.4633
2.4438
2.5024
2.4242
2.5073
2.5122
2.4633
2.5122
2.4536
2.4780
2.5220
2.4389
2.5464
2.5367
2.5122
2.5855
2.4927
2.5171
2.5122
2.4194
2.5024
2.4340
2.4487
2.5171
2.3851
2.4927
2.7615
3.2063
2.7370
2.2483
2.3949
2.4145
2.3363
2.4340
2.3900
2.3900
2.4585
2.3949
2.4780
2.4585
2.4585
2.5171
2.4682
2.4878
2.5269
2.4829
2.5562
2.5171
2.5269
2.5806
2.5318
2.6295
2.5806
2.5220
2.5855
2.4976
2.4780
2.4878
2.3900
2.4340
2.3851
2.3851
2.4438
2.3705
2.4487
2.4438
2.3998
2.4878
2.4340
2.4780
2.4927
2.4291
2.5073
2.4585
2.4487
2.4976
2.4242
2.4976
2.4927
2.4291
2.5073
2.4389
2.4487
2.4878
2.4145
2.5073
2.4731
2.4536
2.5171
2.4731
2.4927
2.5367
2.4780
2.5464
2.4976
2.5122
2.5367
2.4438
2.4976
2.4536
2.4145
2.5024
2.4389
2.4145
2.4682
2.6540
3.2502
2.7761
2.2727
2.4047
2.3460
2.4242
2.4145
2.3803
2.4438
2.3851
2.4438
2.4731
2.4145
2.5171
2.4585
2.4585
2.5171
2.4633
2.5171
2.5220
2.4731
2.5758
2.5318
2.5709
2.6002
2.5367
2.5953
2.5562
2.4927
2.5122
2.4047
2.4682
2.3998
2.3558
2.4291
2.3900
2.3949
2.4291
2.3851
2.4731
2.4487
2.4194
2.5073
2.4242
2.4536
2.4682
2.4047
2.4976
2.4487
2.4536
2.4878
2.4145
2.5024
2.4878
2.4340
2.5024
2.4389
2.4927
2.5024
2.4242
2.5024
2.4780
2.4585
2.5171
2.4389
2.5269
2.5171
2.4682
2.5611
2.5024
2.5269
2.5415
2.4389
2.5024
2.4487
2.4194
2.5024
2.4145
2.4536
2.4242
2.5806
3.2063
2.8886
2.3265
2.3949
2.3460
2.4096
2.3754
2.3851
2.4487
2.3851
2.4585
2.4633
2.4389
2.5073
2.4536
2.4829
2.5073
2.4438
2.5367
2.5171
2.5367
2.5806
2.5415
2.5758
2.5758
2.5464
2.6100
2.5415
2.5513
2.5367
2.4145
2.4536
2.3998
2.3803
2.4242
2.3509
2.4340
2.4340
2.3949
2.4976
2.4389
2.4536
2.5073
2.4242
2.5171
2.4780
2.4242
2.5122
2.4487
2.4878
2.4976
2.4389
2.5073
2.4536
2.4585
2.5220
2.4242
2.4976
2.4927
2.4438
2.5367
2.4780
2.4878
2.5073
2.4389
2.5367
2.5073
2.5073
2.5562
2.4927
2.5660
2.5269
2.4633
2.5171
2.4487
2.4731
2.4878
2.4096
2.4633
2.4194
2.5953
3.2014
2.8201
2.3069
2.3851
2.3363
2.4340
2.3558
2.3803
2.4536
2.3949
2.4829
2.4536
2.4438
2.5269
2.4536
2.5024
2.4976
2.4487
2.5367
2.4878
2.5367
2.5758
2.5171
2.6100
2.5758
2.5513
2.6149
2.5464
2.5464
2.5024
2.3998
2.4585
2.3900
2.3851
2.4438
2.3656
2.4340
2.4194
2.3851
2.4731
2.4145
2.4438
2.4878
2.4194
2.4927
2.4731
2.4438
2.5024
2.4291
2.4829
2.4927
2.4340
2.5073
2.4438
2.4585
2.5024
2.4242
2.5073
2.4731
2.4536
2.5171
2.4536
2.5171
2.5318
2.4633
2.5562
2.5171
2.4927
2.5269
2.4242
2.4682
2.4585
2.4340
2.4878
2.4096
2.4194
2.5855
3.0499
3.0059
2.3363
2.3314
2.4291
2.3412
2.4194
2.4047
2.3803
2.4633
2.4096
2.4633
2.4731
2.4291
2.5269
2.4731
2.4780
2.5073
2.4438
2.5367
2.5269
2.4976
2.5953
2.5269
2.5806
2.5953
2.5367
2.5806
2.5024
2.4585
2.4927
2.3754
2.4291
2.4145
2.3656
2.4536
2.3900
2.4047
2.4487
2.3998
2.4731
2.4585
2.4194
2.4829
2.4291
2.4829
2.4780
2.4145
2.4829
2.4340
2.4780
2.5171
2.4389
2.5024
2.4878
2.4536
2.5269
2.4389
2.4927
2.5122
2.4780
2.5513
2.4927
2.5318
2.5464
2.4536
2.5024
2.4682
2.4340
2.4976
2.4389
2.4682
2.3851
2.4194
2.8446
3.1769
2.6246
2.3363
2.3558
2.4340
2.3998
2.3803
2.4585
2.3998
2.4585
2.4633
2.4096
2.5122
2.4633
2.4731
2.5318
2.4487
2.5269
2.5122
2.4829
2.5806
2.5073
2.5660
2.6051
2.5220
2.6197
2.5758
2.5171
2.5415
2.4438
2.4780
2.4340
2.3607
2.4438
2.3803
2.4194
2.4438
2.3803
2.4731
2.4633
2.4536
2.5220
2.4487
2.4927
2.4829
2.4242
2.5171
2.4585
2.4780
2.5122
2.4194
2.4829
2.4731
2.4389
2.5024
2.4438
2.4829
2.4780
2.4438
2.5269
2.4731
2.4731
2.5318
2.4633
2.5415
2.5318
2.4976
2.5562
2.4780
2.5269
2.5171
2.4242
2.5024
2.4585
2.4536
2.5073
2.3949
2.4487
2.6149
3.1134
2.9717
2.2923
2.3656
2.4194
2.3656
2.4242
2.3949
2.3754
2.4389
2.3900
2.4731
2.4731
2.4047
2.5171
2.4438
2.5122
2.5367
2.4780
2.5513
2.5122
2.5171
2.6197
2.5464
2.6100
2.5904
2.5367
2.5953
2.5318
2.4878
2.4780
2.3851
2.4340
2.3998
2.3803
2.4536
2.3851
2.4536
2.4633
2.3851
2.4731
2.4291
2.4585
2.5024
2.4291
2.5171
2.4829
2.4487
2.4976
2.4145
2.4780
2.4976
2.4438
2.5073
2.4682
2.4780
2.5220
2.4145
2.5024
2.4780
2.4340
2.5122
2.4487
2.4927
2.5122
2.4438
2.5024
2.4585
2.4829
2.5415
2.4731
2.5562
2.5220
2.5122
2.5318
2.4682
2.4878
2.4878
2.4047
2.4927
2.4487
2.4487
2.3998
2.4291
2.8788
3.1476
2.4731
2.3607
2.3363
2.3705
2.4194
2.3314
2.4291
2.3998
2.3949
2.4682
2.3900
2.4878
2.4731
2.4340
2.5171
2.4731
2.4927
2.5318
2.4633
2.5611
2.5562
2.5269
2.6149
2.5513
2.6002
2.5904
2.5073
2.5367
2.4536
2.4291
2.4291
2.3509
2.4194
2.3851
2.3851
2.4340
2.3656
2.4389
2.4438
2.4096
2.4927
2.4194
2.4682
2.4829
2.3998
2.4976
2.4829
2.4536
2.5318
2.4487
2.5024
2.5024
2.4291
2.4976
2.4536
2.4731
2.5220
2.4340
2.5073
2.4976
2.4536
2.5318
2.4682
2.4878
2.5122
2.4389
2.5269
2.4829
2.4878
2.5318
2.4536
2.5367
2.5171
2.4927
2.5562
2.5122
2.5318
2.5367
2.4536
2.5171
2.4487
2.4487
2.5171
2.4194
2.4047
2.5367
2.9423
3.1427
2.4389
2.3460
2.4389
2.3705
2.4389
2.4096
2.3998
2.4829
2.4145
2.4780
2.4829
2.4291
2.5269
2.4829
2.4829
2.5171
2.4682
2.5513
2.5171
2.5073
2.5904
2.5367
2.6051
2.6149
2.5513
2.6197
2.5367
2.4927
2.4976
2.3851
2.4340
2.4047
2.3558
2.4291
2.3656
2.4145
2.4487
2.3803
2.4731
2.4340
2.4389
2.5024
2.4242
2.5122
2.4829
2.4389
2.5073
2.4389
2.4731
2.4878
2.4194
2.5073
2.4682
2.4536
2.4976
2.4047
2.4829
2.4829
2.4438
2.5024
2.4487
2.4878
2.4976
2.4438
2.5024
2.4731
2.4829
2.5220
2.4487
2.5171
2.5220
2.4780
2.5611
2.5024
2.4829
2.4780
2.4291
2.4927
2.4438
2.4438
2.5073
2.3509
2.5269
2.9228
3.0987
2.5513
2.2776
2.4047
2.4145
2.3412
2.4438
2.4047
2.4047
2.4878
2.4194
2.4487
2.4633
2.4145
2.5073
2.4536
2.4682
2.5171
2.4536
2.5415
2.5220
2.5073
2.5904
2.5367
2.5855
2.5855
2.5171
2.5855
2.4878
2.4633
2.4878
2.3803
2.4291
2.4047
2.3705
2.4682
2.3851
2.4291
2.4585
2.3900
2.4878
2.4633
2.4633
2.5073
2.4194
2.4927
2.4927
2.4291
2.5073
2.4487
2.4585
2.4878
2.4242
2.5171
2.4780
2.4536
2.5318
2.4340
2.5171
2.5024
2.4633
2.5220
2.4633
2.4927
2.5318
2.4633
2.5513
2.5024
2.5318
2.5855
2.4780
2.4829
2.4927
2.4145
2.5024
2.4536
2.4633
2.4145
2.4194
2.7468
3.2160
2.7322
2.2972
2.3265
2.4096
2.4291
2.3803
2.4487
2.4194
2.4438
2.4682
2.3998
2.5024
2.4780
2.4438
2.5269
2.4731
2.5122
2.5171
2.4829
2.5709
2.5367
2.5709
2.6051
2.5122
2.5904
2.5806
2.5122
2.5464
2.4291
2.4731
2.4780
2.3900
2.4145
2.3803
2.3656
2.4585
2.3949
2.4682
2.4438
2.4340
2.4927
2.4389
2.4682
2.5122
2.4633
2.5513
2.4291
2.4487
2.5024
2.4145
2.5122
2.5171
2.4536
2.5318
2.4487
2.4976
2.4878
2.4291
2.5367
2.5171
2.4780
2.5318
2.4829
2.5367
2.5318
2.5122
2.5855
2.5122
2.5660
2.5562
2.4536
2.5024
2.4487
2.4536
2.4731
2.4242
2.4731
2.4829
2.6100
3.2160
2.7908
2.2972
2.4096
2.3265
2.3998
2.3705
2.3754
2.4487
2.3803
2.4633
2.4633
2.4242
2.5269
2.4242
2.4536
2.5464
2.4682
2.5171
2.4976
2.4976
2.5562
2.5171
2.5806
2.6002
2.5611
2.6246
2.5269
2.4682
2.4976
2.3851
2.4145
2.4047
2.3803
2.4389
2.3412
2.3949
2.4242
2.3607
2.4633
2.4291
2.4340
2.4780
2.4145
2.4878
2.4438
2.4145
2.5073
2.4389
2.4878
2.4976
2.4096
2.4878
2.4536
2.4389
2.4878
2.4487
2.5073
2.4878
2.4438
2.5318
2.4242
2.4633
2.4780
2.4389
2.4927
2.4927
2.5024
2.5758
2.5171
2.5709
2.5269
2.4096
2.4780
2.4291
2.4731
2.5024
2.3900
2.4194
2.4536
2.8152
3.1965
2.5367
2.3509
2.3754
2.3363
2.4291
2.3851
2.3900
2.4682
2.4242
2.4536
2.4536
2.4340
2.5220
2.4487
2.4780
2.5122
2.4536
2.5367
2.4927
2.5269
2.5758
2.5220
2.6246
2.6002
2.5513
2.6100
2.5171
2.5269
2.4927
2.4487
2.4389
2.3607
2.3656
2.4194
2.3754
2.4438
2.4340
2.3803
2.4585
2.4340
2.4585
2.4829
2.4145
2.5220
2.4536
2.4291
2.4829
2.4145
2.4780
2.4878
2.4340
2.5122
2.4487
2.4536
2.4731
2.4340
2.5171
2.4829
2.4487
2.5122
2.4242
2.4976
2.4927
2.4487
2.5220
2.4927
2.5122
2.5220
2.5122
2.5806
2.5073
2.4829
2.5171
2.4536
2.4927
2.4878
2.4340
2.5024
2.4536
2.3949
2.4829
2.6491
3.2209
2.7224
2.2483
2.4145
2.3607
2.4194
2.4585
2.3803
2.4438
2.3803
2.4340
2.4780
2.4291
2.5073
2.4878
2.4340
2.5220
2.4976
2.5171
2.4927
2.4633
2.5758
2.5318
2.5562
2.6149
2.5513
2.6246
2.5611
2.4731
2.5171
2.4731
2.4340
2.4194
2.3412
2.4389
2.3851
2.3754
2.4438
2.3949
2.4487
2.4682
2.4194
2.4976
2.4291
2.4389
2.4682
2.4242
2.5122
2.4829
2.4731
2.4927
2.4194
2.4976
2.4585
2.4194
2.5269
2.4633
2.4682
2.5024
2.4145
2.4927
2.4731
2.4633
2.5318
2.5024
2.5513
2.5562
2.4731
2.5415
2.4927
2.4340
2.4829
2.4291
2.5122
2.4731
2.4242
2.4242
2.5073
3.0743
3.0352
2.3412
2.3705
2.3949
2.3998
2.4487
2.3705
2.4487
2.4291
2.4096
2.4927
2.4389
2.5073
2.5024
2.4487
2.5562
2.4878
2.4976
2.5562
2.4682
2.5904
2.5611
2.5220
2.6149
2.5464
2.6051
2.5953
2.5024
2.5171
2.4340
2.4194
2.4389
2.3803
2.4194
2.4047
2.3460
2.4438
2.4242
2.4731
2.4829
2.4242
2.4976
2.4585
2.4340
2.4927
2.4242
2.4878
2.4731
2.4731
2.5024
2.4340
2.4780
2.4878
2.4633
2.4780
2.4438
2.4536
2.5122
2.4731
2.5073
2.4780
2.4194
2.5318
2.4878
2.4829
2.5171
2.4487
2.5318
2.5367
2.5171
2.5904
2.5122
2.5464
2.5464
2.4682
2.5220
2.4585
2.4585
2.4878
2.4096
2.4536
2.4585
2.7273
3.2454
2.6979
2.2874
2.3949
2.3558
2.4633
2.3656
2.3949
2.4487
2.4145
2.4536
2.4340
2.4291
2.5318
2.4731
2.4731
2.5122
2.4682
2.5269
2.4829
2.5367
2.6002
2.5415
2.6149
2.6295
2.5806
2.6149
2.5171
2.5269
2.5122
2.3754
2.4536
2.4096
2.3656
2.4194
2.3754
2.4438
2.4291
2.3900
2.4829
2.4780
2.4731
2.4438
2.3900
2.4829
2.4487
2.4340
2.5318
2.4340
2.5024
2.5024
2.4242
2.4829
2.3998
2.4536
2.4976
2.4242
2.4976
2.4585
2.4536
2.5073
2.4291
2.4878
2.4976
2.4487
2.5318
2.4585
2.4927
2.4829
2.4291
2.5171
2.4927
2.4682
2.5562
2.5024
2.5464
2.5415
2.4731
2.5318
2.4731
2.4340
2.4633
2.3900
2.4927
2.4682
2.3412
2.4927
2.8006
3.1769
2.6246
2.2678
2.4145
2.3363
2.3509
2.4291
2.3705
2.4291
2.4291
2.4389
2.4829
2.4242
2.4536
2.4927
2.4487
2.5318
2.4829
2.4976
2.5709
2.4927
2.5660
2.5806
2.5318
2.6246
2.5367
2.5709
2.5806
2.4536
2.5269
2.4487
2.3900
2.4291
2.3656
2.4291
2.3998
2.3460
2.4487
2.3949
2.4242
2.4633
2.3949
2.4927
2.4536
2.4438
2.5024
2.4291
2.4927
2.4780
2.4340
2.4878
2.4536
2.4633
2.4878
2.4194
2.5024
2.4878
2.4536
2.5171
2.4633
2.4585
2.4829
2.4242
2.5171
2.4682
2.4633
2.5415
2.4487
2.5269
2.4878
2.4682
2.5513
2.4731
2.5513
2.5220
2.4829
2.5562
2.4878
2.4829
2.4927
2.4340
2.4927
2.4682
2.4340
2.4047
2.4438
2.9032
3.1574
2.4976
2.3607
2.3851
2.4096
2.4340
2.3607
2.4291
2.4340
2.3900
2.4829
2.4242
2.4585
2.5024
2.4536
2.5073
2.4829
2.4829
2.5367
2.4780
2.5513
2.5758
2.5367
2.6149
2.5367
2.5709
2.5953
2.5122
2.5953
2.4976
2.4340
2.4633
2.3558
2.3656
2.4242
2.3509
2.4096
2.3803
2.4242
2.4731
2.4047
2.4976
2.4633
2.4585
2.5269
2.4633
2.5073
2.5024
2.4242
2.5024
2.4536
2.4633
2.5318
2.4633
2.5171
2.5464
2.4633
2.5269
2.4340
2.4829
2.5122
2.4438
2.5415
2.4976
2.5073
2.5122
2.4829
2.5464
2.5024
2.4829
2.5904
2.4976
2.5318
2.5318
2.4291
2.4585
2.4291
2.4536
2.5122
2.3851
2.5904
3.0547
3.0010
2.4291
2.2825
2.3851
2.4487
2.3705
2.4291
2.4047
2.3705
2.4878
2.3998
2.4878
2.4878
2.4487
2.5220
2.4633
2.4927
2.5269
2.4829
2.5562
2.5464
2.5269
2.6051
2.5855
2.6100
2.6051
2.5513
2.5562
2.4927
2.4829
2.4731
2.3803
2.4340
2.4194
2.3803
2.4487
2.3558
2.4194
2.4780
2.4047
2.4878
2.4780
2.4585
2.5122
2.4047
2.4878
2.4780
2.4536
2.5220
2.4242
2.4536
2.4780
2.4536
2.4878
2.4829
2.4389
2.4878
2.4242
2.4927
2.5122
2.4780
2.5073
2.4633
2.4878
2.4927
2.4585
2.5171
2.4829
2.5024
2.4780
2.4927
2.5513
2.5269
2.4438
2.4927
2.4389
2.4682
2.5122
2.4242
2.5024
2.4780
2.4389
2.4487
2.4487
2.7224
3.2111
2.7517
2.3021
2.3363
2.3803
2.4242
2.3558
2.4536
2.4536
2.3851
2.4389
2.4145
2.5318
2.4536
2.4047
2.5464
2.4780
2.5024
2.5269
2.4927
2.5855
2.5562
2.5367
2.5660
2.5269
2.6246
2.6344
2.5220
2.5562
2.4731
2.4389
2.4536
2.3656
2.4194
2.3998
2.3803
2.4487
2.3803
2.4536
2.4585
2.4096
2.5024
2.4340
2.4536
2.5220
2.4291
2.4927
2.4780
2.4145
2.5220
2.4340
2.4536
2.4878
2.4242
2.5220
2.4585
2.4829
2.4927
2.4242
2.4927
2.4633
2.4536
2.5073
2.4682
2.4829
2.5073
2.4487
2.5122
2.4731
2.4585
2.5513
2.4927
2.5415
2.5709
2.4878
2.5220
2.4682
2.4927
2.4536
2.3900
2.4927
2.4389
2.4242
2.4242
2.5220
3.0890
2.9277
2.3069
2.4096
2.3607
2.3803
2.4194
2.3314
2.4585
2.4047
2.4047
2.4878
2.4194
2.4878
2.4927
2.4242
2.4976
2.4536
2.4829
2.5073
2.4780
2.5562
2.5415
2.5367
2.5953
2.5611
2.5806
2.5709
2.5122
2.5660
2.4340
2.4096
2.4389
2.3998
2.3949
2.3754
2.3754
2.4291
2.3851
2.4633
2.5024
2.4487
2.4731
2.4438
2.4682
2.4585
2.3998
2.4780
2.4780
2.4487
2.5220
2.4438
2.4829
2.5024
2.4487
2.5513
2.4389
2.4291
2.4878
2.4487
2.5122
2.5073
2.4731
2.5024
2.4340
2.4731
2.5122
2.4780
2.5318
2.4829
2.4927
2.5709
2.4682
2.5513
2.5464
2.4682
2.5562
2.4633
2.4633
2.5122
2.3851
2.4585
2.4585
2.3851
2.5562
2.9228
3.0890
2.4731
2.2776
2.4242
2.3851
2.4194
2.4194
2.3607
2.4536
2.4194
2.4242
2.5073
2.4633
2.4927
2.4878
2.4487
2.5171
2.4585
2.5171
2.5415
2.4878
2.6051
2.5709
2.5562
2.6051
2.5611
2.6051
2.5709
2.4731
2.4878
2.4438
2.4291
2.4096
2.3509
2.4389
2.4633
2.3803
2.4340
2.3949
2.4585
2.4927
2.4389
2.5171
2.4536
2.4780
2.5318
2.4242
2.4829
2.4878
2.4340
2.4633
2.4242
2.4389
2.4633
2.4242
2.4780
2.5024
2.4878
2.4829
2.4389
2.4731
2.4878
2.4536
2.5220
2.4536
2.5024
2.4927
2.4585
2.5611
2.5562
2.4976
2.5367
2.5171
2.5122
2.4829
2.4340
2.5024
2.4242
2.4536
2.4976
2.3412
2.4976
2.7615
3.1720
2.6295
2.2532
2.4389
2.3998
2.3412
2.4242
2.3607
2.4096
2.4536
2.3900
2.4780
2.4927
2.4487
2.4780
2.4096
2.5073
2.4927
2.4878
2.5806
2.5122
2.5318
2.5367
2.5024
2.6100
2.5904
2.5415
2.5904
2.4976
2.4927
2.4389
2.3656
2.4194
2.3460
2.3900
2.4340
2.3607
2.4487
2.3998
2.4145
2.4927
2.4194
2.4976
2.4829
2.4047
2.4829
2.4780
2.4780
2.4878
2.4145
2.4731
2.4585
2.3998
2.4731
2.4536
2.5171
2.5171
2.3803
2.4878
2.4438
2.4340
2.4976
2.4731
2.5318
2.4389
2.4291
2.5122
2.4291
2.4829
2.5269
2.4878
2.5318
2.4682
2.4487
2.5220
2.4780
2.5611
2.5318
2.4829
2.5904
2.4438
2.4194
2.4291
2.3803
2.4682
2.3754
2.5220
3.0743
2.9374
2.4389
2.3460
2.3363
2.4291
2.3754
2.4096
2.4438
2.4047
2.5367
2.4633
2.5073
2.4976
2.3900
2.4780
2.4927
2.4585
2.5562
2.4976
2.5220
2.5806
2.5073
2.6100
2.5904
2.5562
2.6246
2.5464
2.5806
2.5464
2.4682
2.4927
2.3851
2.3900
2.4291
2.3460
2.4389
2.4242
2.3998
2.4731
2.4194
2.4878
2.4829
2.4536
2.5122
2.4389
2.4731
2.5122
2.4242
2.5122
2.4927
2.4585
2.5220
2.4340
2.5024
2.5024
2.4340
2.5024
2.4780
2.4780
2.4927
2.4682
2.4780
2.4731
2.4633
2.5024
2.4389
2.4780
2.5171
2.4682
2.5220
2.4878
2.4878
2.5562
2.5024
2.5758
2.5367
2.4927
2.5318
2.4242
2.4878
2.5024
2.4242
2.4878
2.3754
2.4633
2.8690
3.1232
2.6344
2.3118
2.3558
2.4487
2.3460
2.3949
2.4291
2.3607
2.5024
2.4438
2.4242
2.5171
2.4194
2.4731
2.5073
2.4438
2.5073
2.4585
2.5024
2.5464
2.5171
2.5904
2.5904
2.5953
2.6295
2.5513
2.5953
2.5562
2.4194
2.4633
2.3949
2.3607
2.4047
2.3509
2.4340
2.4242
2.4145
2.4536
2.4096
2.4780
2.4585
2.4242
2.5318
2.4682
2.4682
2.5122
2.4242
2.5024
2.4682
2.4536
2.5122
2.4438
2.4927
2.5171
2.4536
2.5122
2.4633
2.4731
2.5073
2.4291
2.4927
2.4927
2.4731
2.5122
2.4536
2.5024
2.5269
2.4682
2.5562
2.5073
2.5171
2.5562
2.4927
2.5318
2.4731
2.4291
2.5220
2.4242
2.4536
2.4682
2.4096
2.6931
3.1574
2.8592
2.3460
2.3412
2.4096
2.3949
2.3705
2.4585
2.3998
2.4585
2.4927
2.4047
2.5024
2.4927
2.4585
2.5024
2.4633
2.5122
2.5318
2.5024
2.5709
2.5122
2.5562
2.6100
2.5318
2.5953
2.5855
2.5415
2.5904
2.4585
2.4927
2.4389
2.3558
2.4242
2.3851
2.3656
2.4536
2.3558
2.4536
2.4291
2.4291
2.4927
2.4194
2.4682
2.4976
2.4145
2.5269
2.4585
2.4731
2.4780
2.4145
2.5073
2.4731
2.4487
2.5171
2.4389
2.5171
2.5171
2.4438
2.4976
2.4633
2.4878
2.5318
2.4340
2.5073
2.5024
2.4536
2.5318
2.4389
2.4976
2.5122
2.4633
2.5709
2.5171
2.5562
2.5709
2.4585
2.5367
2.4731
2.3998
2.4927
2.4585
2.4536
2.4438
2.3803
2.6637
3.1720
2.8739
2.3021
2.3265
2.3900
2.3705
2.3558
2.4487
2.3754
2.4438
2.4731
2.4096
2.4927
2.4585
2.4536
2.5024
2.4291
2.5318
2.5464
2.4536
2.5464
2.5220
2.5953
2.5758
2.5171
2.6295
2.5806
2.5415
2.5611
2.4585
2.5562
2.4682
2.3460
2.3998
2.3265
2.3754
2.4242
2.3754
2.4585
2.4194
2.3949
2.4536
2.4145
2.4829
2.4780
2.4438
2.4927
2.4536
2.4487
2.4829
2.4096
2.4878
2.4487
2.4389
2.4976
2.4389
2.4927
2.5318
2.4487
2.5269
2.4585
2.4487
2.5073
2.4291
2.4927
2.4927
2.4682
2.5122
2.4633
2.5122
2.5269
2.4438
2.5220
2.4682
2.5660
2.6002
2.3851
2.4633
2.4731
2.4487
2.5318
2.4389
2.4633
2.5024
2.4389
2.5024
2.4242
2.3363
2.6393
3.1085
2.9374
2.3118
2.3314
2.4340
2.3949
2.4633
2.3705
2.3558
2.4291
2.3949
2.3949
2.4927
2.4585
2.4682
2.4633
2.4389
2.5269
2.5122
2.5318
2.5464
2.5024
2.6051
2.6002
2.5220
2.6295
2.5562
2.5709
2.5513
2.4731
2.4829
2.4096
2.4096
2.4096
2.3216
2.4438
2.3851
2.2972
2.4194
2.3949
2.4682
2.4389
2.3851
2.5024
2.4878
2.4829
2.5122
2.3998
2.4780
2.4682
2.4389
2.5171
2.4536
2.4731
2.4878
2.4487
2.5171
2.4536
2.4487
2.5220
2.4389
2.4927
2.4976
2.4536
2.5415
2.4633
2.4731
2.4927
2.4438
2.5220
2.4976
2.4878
2.5562
2.5122
2.5415
2.5415
2.4780
2.5171
2.4438
2.4585
2.4780
2.4096
2.5024
2.4194
2.3851
2.6637
3.1085
2.9619
2.3265
2.3021
2.4438
2.3803
2.3851
2.4389
2.3998
2.4487
2.4340
2.4242
2.5073
2.4438
2.5073
2.4976
2.4438
2.5562
2.4927
2.5024
2.5660
2.5122
2.6295
2.5855
2.5171
2.5953
2.5415
2.5758
2.5758
2.4780
2.5073
2.4145
2.4096
2.4633
2.3265
2.4389
2.4145
2.3607
2.4438
2.4096
2.4633
2.4633
2.3949
2.4927
2.4731
2.4487
2.4536
2.3998
2.5073
2.5171
2.4487
2.5269
2.4633
2.4878
2.5318
2.4585
2.5024
2.4927
2.4780
2.5024
2.4585
2.5171
2.4927
2.4389
2.5269
2.4976
2.4878
2.5318
2.4438
2.5024
2.4976
2.5024
2.5758
2.5367
2.5806
2.5415
2.4633
2.4927
2.4389
2.4780
2.4780
2.3998
2.4780
2.4291
2.6002
3.0890
2.9814
2.3509
2.3118
2.3363
2.4291
2.3900
2.3851
2.4438
2.4047
2.4633
2.4487
2.4194
2.4829
2.4340
2.5318
2.5220
2.4633
2.5122
2.5024
2.4976
2.5464
2.5122
2.6149
2.5758
2.5562
2.6637
2.5464
2.5709
2.5122
2.4145
2.4536
2.3803
2.3705
2.4389
2.3216
2.4047
2.3949
2.3754
2.4585
2.4242
2.4633
2.4536
2.4242
2.5269
2.4682
2.4096
2.5024
2.4291
2.4927
2.4976
2.4585
2.5171
2.4585
2.4682
2.5024
2.4291
2.5171
2.4731
2.4536
2.5562
2.4682
2.5220
2.5122
2.4291
2.5073
2.4438
2.4829
2.5122
2.4829
2.5660
2.4829
2.4829
2.4780
2.4389
2.5415
2.5367
2.5220
2.5758
2.4340
2.4389
2.5024
2.4731
2.4780
2.4536
2.4487
2.4487
2.4194
2.8788
3.2111
2.5171
2.2972
2.3558
2.3705
2.4242
2.3558
2.4438
2.4487
2.4047
2.4927
2.3998
2.4633
2.5415
2.4633
2.4731
2.4389
2.4731
2.5367
2.4682
2.5660
2.5611
2.5562
2.6295
2.5709
2.5855
2.5904
2.4976
2.5318
2.4487
2.4487
2.4878
2.3509
2.4096
2.3754
2.3460
2.4340
2.3607
2.4096
2.4291
2.3900
2.4829
2.4389
2.4633
2.5415
2.4536
2.4731
2.4927
2.4242
2.4878
2.4536
2.4731
2.5122
2.4487
2.5367
2.4780
2.4536
2.5024
2.4145
2.4976
2.4878
2.4340
2.5562
2.4731
2.4780
2.5122
2.4389
2.5318
2.5024
2.4682
2.5220
2.4829
2.5415
2.5171
2.4927
2.5562
2.5220
2.4976
2.4976
2.4145
2.4731
2.4585
2.4536
2.5122
2.3998
2.6149
3.1672
2.9423
2.3949
2.2727
2.3509
2.4145
2.3558
2.4291
2.4291
2.3998
2.4829
2.4145
2.5073
2.4829
2.4145
2.5269
2.4633
2.4731
2.5220
2.4536
2.5367
2.5415
2.5562
2.6246
2.5269
2.6100
2.6344
2.5024
2.5562
2.5024
2.4731
2.4878
2.3705
2.4242
2.4340
2.3949
2.4340
2.3705
2.4389
2.4389
2.3705
2.5024
2.4633
2.4340
2.4731
2.4291
2.5122
2.4536
2.4536
2.5415
2.4340
2.4829
2.4829
2.4194
2.4927
2.4633
2.4633
2.5171
2.4438
2.5269
2.4731
2.4536
2.5269
2.4438
2.4682
2.5024
2.4389
2.5464
2.4976
2.4878
2.5611
2.4536
2.5513
2.5367
2.4633
2.5318
2.4242
2.4145
2.4487
2.4047
2.5171
2.3803
2.4047
2.8250
3.2258
2.7468
2.2776
2.2923
2.3949
2.3558
2.3900
2.4194
2.3949
2.4927
2.4389
2.3754
2.4878
2.4487
2.4878
2.5122
2.4340
2.5220
2.5073
2.5024
2.5562
2.4780
2.6002
2.5758
2.5709
2.6735
2.5611
2.5611
2.5415
2.4194
2.4682
2.3949
2.3754
2.4340
2.3558
2.3900
2.3803
2.3460
2.4389
2.4096
2.4585
2.5024
2.4291
2.5073
2.4438
2.4487
2.4780
2.4145
2.5171
2.4927
2.4389
2.5024
2.4291
2.4682
2.5122
2.4242
2.5024
2.4145
2.4585
2.5318
2.4682
2.5220
2.4731
2.4389
2.5513
2.4536
2.4731
2.5024
2.4536
2.5660
2.5464
2.4927
2.5464
2.4682
2.5171
2.5073
2.4194
2.4780
2.4291
2.4536
2.4976
2.3558
2.5220
2.7664
3.2063
2.7273
2.2239
2.3851
2.4096
2.3803
2.4487
2.3754
2.4096
2.4829
2.4389
2.4780
2.4487
2.4389
2.5073
2.4536
2.5220
2.5171
2.4585
2.5709
2.5122
2.4976
2.5953
2.5464
2.6197
2.5758
2.5513
2.6051
2.4976
2.5073
2.4927
2.3851
2.4194
2.3803
2.4047
2.4536
2.3656
2.3900
2.4096
2.3803
2.4829
2.4633
2.5122
2.4829
2.4291
2.4682
2.4536
2.4536
2.5122
2.4340
2.5073
2.4927
2.4242
2.5220
2.4536
2.4585
2.5073
2.3949
2.4927
2.4780
2.4536
2.5220
2.4731
2.5220
2.5269
2.4633
2.5513
2.4829
2.4976
2.5513
2.4585
2.5415
2.5122
2.4536
2.4976
2.4242
2.4682
2.4976
2.4438
2.4145
2.4878
2.9521
3.1720
2.3949
2.3363
2.3705
2.3412
2.4242
2.3607
2.4047
2.4047
2.3656
2.4829
2.4682
2.4682
2.4927
2.4633
2.5122
2.4878
2.4633
2.5367
2.5024
2.5513
2.5758
2.5318
2.6442
2.6197
2.5758
2.5806
2.5024
2.5122
2.4976
2.4242
2.4291
2.3460
2.3949
2.4145
2.3558
2.4438
2.4242
2.3900
2.4829
2.4096
2.4976
2.4780
2.4585
2.5024
2.4878
2.4780
2.4976
2.4242
2.5073
2.4682
2.4780
2.5024
2.4242
2.4780
2.4829
2.4340
2.5171
2.4536
2.4829
2.4927
2.4731
2.5318
2.4633
2.4438
2.5073
2.4585
2.5367
2.5220
2.5073
2.6149
2.4927
2.4780
2.4878
2.3900
2.4780
2.4585
2.4487
2.4927
2.3118
2.5415
3.0596
3.0450
2.4340
2.2923
2.3754
2.4242
2.3363
2.4438
2.4291
2.3998
2.4389
2.3998
2.4438
2.4927
2.4242
2.5269
2.4633
2.4585
2.5220
2.4780
2.5611
2.5562
2.5513
2.6540
2.5611
2.6197
2.6246
2.5269
2.5806
2.4878
2.4291
2.4633
2.3803
2.4194
2.3900
2.3803
2.4096
2.3363
2.3949
2.4242
2.3754
2.4927
2.4536
2.4633
2.4682
2.3949
2.4487
2.4585
2.4536
2.5122
2.4633
2.5171
2.4829
2.4096
2.4780
2.4633
2.4682
2.5024
2.4487
2.5073
2.5073
2.4487
2.5269
2.4340
2.4829
2.4976
2.4536
2.5269
2.4976
2.4585
2.5464
2.5122
2.5367
2.5171
2.4878
2.5562
2.4927
2.4878
2.4682
2.3900
2.4878
2.4878
2.4633
2.4389
2.4096
2.7664
3.2796
2.7126
2.2874
2.3363
2.3607
2.4291
2.3803
2.4340
2.4438
2.3949
2.4438
2.4145
2.4487
2.4829
2.4242
2.5415
2.4780
2.4878
2.5513
2.4976
2.5709
2.5758
2.5660
2.6540
2.6197
2.5855
2.5758
2.5171
2.5660
2.4878
2.4291
2.4682
2.3705
2.4487
2.3949
2.3460
2.4145
2.3705
2.4145
2.4633
2.3949
2.4878
2.4927
2.4829
2.4487
2.4145
2.4829
2.4976
2.4340
2.5073
2.4487
2.4780
2.5171
2.4340
2.5122
2.4878
2.4682
2.5562
2.4291
2.4731
2.4927
2.4291
2.5318
2.4878
2.5024
2.5318
2.4242
2.5122
2.4878
2.4585
2.5513
2.4878
2.5073
2.5171
2.4438
2.5269
2.4389
2.4389
2.5269
2.3900
2.4633
2.3803
2.5073
3.0156
3.0938
2.4927
2.3314
2.3558
2.4487
2.3998
2.3803
2.4291
2.3754
2.4829
2.4633
2.4291
2.5171
2.4389
2.4878
2.5269
2.4487
2.5220
2.4927
2.4927
2.5758
2.5318
2.5709
2.5758
2.5464
2.6393
2.5513
2.5464
2.5269
2.4340
2.4780
2.4291
2.3656
2.4291
2.3460
2.4096
2.4291
2.3754
2.5024
2.4389
2.4633
2.4878
2.4242
2.4927
2.4633
2.4585
2.5220
2.4291
2.4829
2.5024
2.4438
2.5318
2.4878
2.4633
2.5122
2.4194
2.5122
2.4780
2.4536
2.5269
2.4633
2.5073
2.5024
2.4536
2.5269
2.4829
2.5318
2.5855
2.4927
2.5660
2.4927
2.4389
2.5269
2.4438
2.4389
2.4585
2.4194
2.5367
2.3998
2.4682
2.8983
3.1525
2.6051
2.3069
2.3216
2.4145
2.3705
2.3851
2.4194
2.4096
2.4927
2.4145
2.4145
2.5171
2.4389
2.4829
2.5024
2.4389
2.5269
2.5024
2.5220
2.5513
2.5367
2.6100
2.5660
2.5464
2.5904
2.5269
2.5758
2.5220
2.4291
2.4731
2.4096
2.3607
2.4096
2.3607
2.4389
2.3900
2.3851
2.4731
2.4194
2.4585
2.4927
2.4487
2.5220
2.4438
2.4829
2.5024
2.4145
2.4976
2.4780
2.4682
2.5073
2.4389
2.4878
2.4976
2.4340
2.5171
2.4780
2.4829
2.5024
2.4633
2.4878
2.4487
2.4340
2.5220
2.4438
2.5122
2.5073
2.4291
2.5073
2.4780
2.4585
2.5122
2.4389
2.5171
2.5318
2.4829
2.5660
2.4878
2.5318
2.5269
2.5024
2.4878
2.4633
2.4096
2.4878
2.4145
2.4976
2.3998
2.4878
3.0108
3.0450
2.4291
2.3363
2.3265
2.4047
2.3754
2.3803
2.4438
2.4047
2.4682
2.4487
2.4291
2.5220
2.4878
2.4731
2.4780
2.3803
2.5024
2.5024
2.4976
2.5709
2.5367
2.6197
2.6344
2.5513
2.6197
2.5611
2.5464
2.5464
2.4194
2.4633
2.4096
2.3803
2.4438
2.3656
2.3949
2.4242
2.3607
2.4585
2.4145
2.4487
2.4731
2.4242
2.5024
2.4829
2.4487
2.5122
2.4389
2.4829
2.4878
2.4145
2.5122
2.4682
2.4536
2.4927
2.4438
2.4731
2.4438
2.4145
2.4878
2.4438
2.4976
2.5073
2.4585
2.5122
2.4731
2.4585
2.5073
2.4389
2.5122
2.4927
2.4585
2.5611
2.4682
2.4927
2.4878
2.4438
2.5367
2.5269
2.4976
2.5855
2.4976
2.5562
2.5171
2.3705
2.4291
2.4096
2.4340
2.4829
2.3460
2.4976
2.8055
3.2307
2.6833
2.1799
2.3558
2.3851
2.3314
2.4096
2.3754
2.4242
2.4585
2.3851
2.4731
2.4536
2.4340
2.5415
2.4340
2.4633
2.4976
2.4536
2.5464
2.5073
2.5415
2.5904
2.5562
2.6540
2.5904
2.5464
2.5904
2.5171
2.5415
2.4976
2.3705
2.4242
2.3265
2.3363
2.3851
2.3509
2.4487
2.4194
2.4047
2.4829
2.3754
2.4096
2.4682
2.4194
2.4976
2.4536
2.4585
2.5367
2.4487
2.5024
2.4682
2.4731
2.4976
2.4242
2.4878
2.5122
2.4438
2.5513
2.4780
2.4438
2.4976
2.4340
2.4976
2.4976
2.4438
2.5269
2.4585
2.5122
2.5220
2.4340
2.5318
2.5073
2.5220
2.5855
2.4927
2.5318
2.5073
2.4536
2.5024
2.4487
2.4927
2.4927
2.3656
2.4927
2.7126
3.1965
2.8104
2.2483
2.4096
2.4145
2.3705
2.4438
2.4096
2.4438
2.4633
2.4145
2.4927
2.4682
2.4487
2.5171
2.4633
2.5220
2.5073
2.4829
2.5660
2.5171
2.5562
2.6002
2.5415
2.6197
2.5855
2.5660
2.6100
2.5024
2.5122
2.4633
2.3851
2.4438
2.3803
2.3900
2.4194
2.3656
2.4438
2.4340
2.4096
2.4780
2.4242
2.4829
2.4878
2.4340
2.5122
2.4487
2.4633
2.5073
2.4438
2.4927
2.4731
2.4340
2.5024
2.4340
2.4780
2.4780
2.4340
2.5171
2.4731
2.4731
2.5073
2.4487
2.5073
2.4878
2.4585
2.5318
2.4633
2.5073
2.5171
2.4731
2.5513
2.5073
2.5318
2.5611
2.4682
2.5024
2.4682
2.4194
2.4927
2.4389
2.4682
2.4047
2.4682
2.9717
3.1672
2.5024
2.3363
2.3412
2.4047
2.3998
2.3656
2.4487
2.3851
2.4438
2.4731
2.4145
2.4927
2.4731
2.4682
2.5269
2.4633
2.5367
2.5171
2.4878
2.5709
2.5269
2.5758
2.6149
2.5513
2.6246
2.5660
2.5367
2.5562
2.4438
2.4487
2.4291
2.3607
2.3998
2.3754
2.4047
2.4438
2.3851
2.4682
2.4487
2.4291
2.4976
2.4291
2.4878
2.4829
2.4438
2.5024
2.4487
2.4633
2.4927
2.4291
2.5024
2.4731
2.4438
2.4976
2.4389
2.4878
2.4976
2.4438
2.5171
2.4682
2.4829
2.5171
2.4438
2.5220
2.4927
2.4536
2.5024
2.4536
2.5122
2.5122
2.4731
2.5611
2.5171
2.5220
2.5269
2.4487
2.4976
2.4487
2.4291
2.4878
2.4291
2.4731
2.3949
2.5073
3.0743
3.0499
2.3803
2.3509
2.3363
2.3949
2.3705
2.3705
2.4389
2.3851
2.4340
2.4585
2.4047
2.4976
2.4389
2.4585
2.5171
2.4633
2.5220
2.5122
2.4878
2.5758
2.5318
2.5855
2.6149
2.5464
2.6246
2.5758
2.5464
2.5513
2.4340
2.4682
2.4047
2.3558
2.4145
2.3607
2.3949
2.4194
2.3656
2.4536
2.4242
2.4291
2.4780
2.4096
2.4731
2.4780
2.4291
2.4927
2.4389
2.4682
2.4927
2.4242
2.4878
2.4585
2.4536
2.4976
2.4291
2.4976
2.4682
2.4145
2.4927
2.4438
2.4633
2.4878
2.4242
2.5073
2.4438
2.4585
2.5171
2.4536
2.5318
2.5367
2.4780
2.5660
2.5122
2.5073
2.5220
2.4194
2.4878
2.4389
2.4242
2.4927
2.3656
2.4633
2.7517
3.1965
2.7713
2.2630
2.3851
2.4242
2.3607
2.4194
2.3949
2.4047
2.4731
2.4096
2.4633
2.4682
2.4340
2.5269
2.4633
2.4976
2.5367
2.4731
2.5562
2.5318
2.5269
2.6051
2.5415
2.6002
2.6002
2.5415
2.5953
2.5269
2.5073
2.4927
2.3851
2.4438
2.3949
2.3754
2.4389
2.3803
2.4340
2.4389
2.3998
2.4878
2.4389
2.4585
2.4927
2.4340
2.5024
2.4780
2.4536
2.5073
2.4438
2.4927
2.4927
2.4242
2.5122
2.4536
2.4682
2.5122
2.4389
2.5122
2.4976
2.4585
2.5269
2.4780
2.5415
2.5464
2.4976
2.5611
2.4878
2.4878
2.4927
2.4194
2.4829
2.4585
2.4487
2.4731
2.4047
2.6588
3.1965
2.8543
2.3412
2.3558
2.3851
2.4145
2.3607
2.4389
2.4242
2.4047
2.4780
2.4340
2.4633
2.4927
2.4389
2.5269
2.4682
2.4731
2.5269
2.4780
2.5415
2.5367
2.5073
2.6100
2.5611
2.5904
2.6149
2.5367
2.5758
2.4878
2.4487
2.4585
2.3705
2.4242
2.4096
2.3754
2.4536
2.3851
2.4291
2.4536
2.3998
2.4878
2.4536
2.4585
2.5024
2.4389
2.5024
2.4780
2.4438
2.5122
2.4487
2.4682
2.4927
2.4340
2.5073
2.4585
2.4633
2.5122
2.4340
2.4927
2.4829
2.4438
2.5171
2.4585
2.4878
2.5367
2.4780
2.5562
2.5220
2.5171
2.5367
2.4536
2.4976
2.4585
2.4194
2.4829
2.4340
2.4438
2.3949
2.4927
3.0303
3.0694
2.3949
2.3656
2.3558
2.4047
2.3998
2.3656
2.4536
2.4047
2.4438
2.4682
2.4194
2.4927
2.4633
2.4585
2.5220
2.4682
2.5367
2.5220
2.4878
2.5758
2.5269
2.5611
2.6051
2.5513
2.6051
2.5758
2.5367
2.5464
2.4340
2.4731
2.4291
2.3656
2.4291
2.3705
2.3900
2.4389
2.3705
2.4585
2.4389
2.4242
2.4878
2.4291
2.4878
2.4829
2.4340
2.4976
2.4438
2.4536
2.5024
2.4145
2.4927
2.4682
2.4291
2.4976
2.4291
2.4829
2.4927
2.4340
2.5024
2.4585
2.4976
2.5122
2.4438
2.5122
2.4878
2.4682
2.5269
2.4682
2.5269
2.5367
2.4829
2.5709
2.5220
2.5073
2.5318
2.4389
2.4878
2.4633
2.4340
2.4976
2.3998
2.4438
2.6491
3.1476
2.8837
2.2874
2.3509
2.4096
2.3412
2.4047
2.3998
2.3803
2.4536
2.3998
2.4585
2.4829
2.4291
2.5122
2.4585
2.4682
2.5122
2.4633
2.5269
2.5269
2.5073
2.5904
2.5415
2.5855
2.6002
2.5318
2.6051
2.5415
2.4682
2.4536
2.3607
2.4047
2.3998
2.3656
2.4438
2.3900
2.3998
2.4291
2.3558
2.4585
2.4976
2.4682
2.5024
2.3851
2.4242
2.4242
2.4145
2.4976
2.4487
2.4976
2.4878
2.4242
2.4731
2.4438
2.4194
2.4780
2.4291
2.4878
2.4829
2.4340
2.5073
2.4536
2.4878
2.5220
2.4487
2.5122
2.4731
2.4878
2.5513
2.4878
2.5367
2.5513
2.4829
2.5269
2.4682
2.4878
2.4780
2.3998
2.4829
2.4682
2.3754
2.5318
2.7664
3.2063
2.6588
2.1799
2.3656
2.3363
2.4145
2.5024
2.3949
2.4487
2.3705
2.3069
2.4536
2.4194
2.5073
2.5220
2.5513
2.5611
2.4731
2.4536
2.5318
2.4682
2.5904
2.5806
2.5953
2.6442
2.4927
2.5269
2.5806
2.4927
2.5269
2.4682
2.4633
2.4487
2.3851
2.4291
2.3803
2.3754
2.4536
2.4194
2.4585
2.4878
2.4389
2.5758
2.4340
2.4633
2.5709
2.4096
2.4194
2.5415
2.4780
2.4389
2.4047
2.4536
2.5367
2.4242
2.5269
2.4633
2.4731
2.5415
2.4145
2.4927
2.5024
2.4487
2.5415
2.5464
2.4829
2.4829
2.4780
2.5220
2.5073
2.4927
2.6197
2.5024
2.5171
2.4829
2.4389
2.4780
2.4242
2.4585
2.5220
2.3460
2.4829
2.7859
3.2796
2.7273
2.2190
2.3949
2.3803
2.3216
2.4194
2.4536
2.4585
2.4096
2.4242
2.5024
2.5073
2.4536
2.4731
2.4242
2.5073
2.5269
2.5171
2.5464
2.5806
2.5611
2.5855
2.5171
2.5709
2.5611
2.5562
2.6051
2.5318
2.5367
2.4536
2.4633
2.4536
2.3803
2.3900
2.3900
2.3607
2.4633
2.4145
2.4340
2.5024
2.4047
2.4976
2.4829
2.4487
2.4927
2.4585
2.5024
2.4927
2.4194
2.5171
2.4976
2.5171
2.5269
2.4682
2.4927
2.4731
2.4096
2.4878
2.4633
2.4927
2.4633
2.4242
2.5220
2.4829
2.4780
2.5269
2.4585
2.5171
2.5171
2.4780
2.5660
2.4878
2.5122
2.5562
2.4927
2.5367
2.4829
2.4585
2.5073
2.4487
2.5122
2.5269
2.3851
2.3900
2.6979
3.1232
2.7175
2.2336
2.4047
2.3851
2.3803
2.4438
2.3949
2.4487
2.4438
2.3998
2.4878
2.4242
2.4633
2.5171
2.4487
2.5367
2.4878
2.4829
2.5562
2.4682
2.5415
2.5855
2.5464
2.6295
2.5513
2.5464
2.5855
2.5122
2.5171
2.4438
2.3460
2.4340
2.3363
2.3705
2.4047
2.3558
2.4438
2.4194
2.4242
2.4829
2.4242
2.4927
2.4731
2.4389
2.5171
2.4389
2.4829
2.4878
2.4291
2.5073
2.4536
2.4682
2.5024
2.4291
2.4976
2.4682
2.4682
2.5122
2.4438
2.5220
2.5122
2.4585
2.5073
2.4487
2.4438
2.5171
2.4536
2.5122
2.5073
2.4731
2.5220
2.4731
2.5171
2.5513
2.4878
2.5367
2.4585
2.4536
2.4927
2.4242
2.4927
2.4780
2.3803
2.4633
2.6540
3.2160
2.8055
2.2630
2.3998
2.3754
2.3656
2.4340
2.3607
2.4438
2.4389
2.3998
2.4878
2.4291
2.4633
2.4927
2.4438
2.5367
2.4927
2.4780
2.5464
2.4878
2.5611
2.5464
2.5318
2.6197
2.5611
2.6002
2.5904
2.4780
2.5220
2.4438
2.4194
2.4438
2.3509
2.3998
2.4047
2.3803
2.4585
2.4096
2.4438
2.4829
2.4047
2.5073
2.4389
2.4389
2.4927
2.4340
2.4878
2.4780
2.4389
2.5122
2.4585
2.4976
2.5073
2.4242
2.5073
2.4780
2.4585
2.5024
2.4340
2.4927
2.4976
2.4487
2.5269
2.4780
2.4976
2.5367
2.4682
2.5611
2.5122
2.5171
2.5611
2.4731
2.5024
2.4780
2.4291
2.4976
2.4487
2.4682
2.4242
2.4145
2.7908
3.2063
2.6393
2.3167
2.3705
2.4096
2.4096
2.3314
2.3851
2.3265
2.4340
2.4389
2.3900
2.5464
2.4682
2.4291
2.5367
2.4585
2.5318
2.5220
2.4829
2.6002
2.5318
2.5220
2.5611
2.5513
2.6295
2.5953
2.5318
2.5806
2.4731
2.4585
2.4829
2.4047
2.4242
2.3900
2.3851
2.4878
2.3900
2.4780
2.4487
2.4633
2.4780
2.4145
2.4829
2.5024
2.4145
2.4780
2.4682
2.4829
2.4927
2.4291
2.5220
2.4878
2.4291
2.5073
2.4585
2.4829
2.5024
2.4340
2.5318
2.4633
2.4829
2.5073
2.4487
2.5367
2.4878
2.4536
2.5269
2.4389
2.4976
2.5220
2.4976
2.5513
2.5073
2.5073
2.5318
2.4438
2.4829
2.4585
2.4242
2.4780
2.4438
2.4145
2.4536
2.6197
3.1916
2.7517
2.3167
2.4096
2.3216
2.4096
2.3998
2.3656
2.4438
2.4145
2.4536
2.4682
2.4047
2.5073
2.4633
2.4633
2.5122
2.4633
2.5171
2.5171
2.4878
2.5806
2.5318
2.5806
2.6051
2.5367
2.5806
2.5513
2.5073
2.5122
2.4145
2.4340
2.3851
2.3558
2.4194
2.3607
2.3900
2.4194
2.3705
2.4633
2.4291
2.4242
2.4976
2.4291
2.4878
2.4829
2.4438
2.5073
2.4487
2.4682
2.4927
2.4291
2.5122
2.4633
2.4438
2.4878
2.4242
2.5073
2.4829
2.4194
2.5220
2.4340
2.4927
2.5220
2.4438
2.5122
2.4829
2.4633
2.5367
2.4536
2.5024
2.5122
2.4829
2.5709
2.5220
2.5122
2.5122
2.3949
2.4585
2.4487
2.4340
2.4585
2.3803
2.4047
2.5611
3.0108
3.0010
2.3754
2.3460
2.4096
2.3460
2.4536
2.4291
2.4096
2.4976
2.4242
2.4829
2.4878
2.4389
2.5171
2.4633
2.5024
2.5122
2.4682
2.5464
2.5318
2.5073
2.5758
2.5269
2.5904
2.5904
2.5318
2.5953
2.5269
2.4927
2.5024
2.4194
2.4389
2.3949
2.3607
2.4291
2.3705
2.4340
2.4242
2.3900
2.4585
2.4438
2.3900
2.4927
2.3900
2.5122
2.4438
2.4096
2.4878
2.4536
2.4682
2.4878
2.4145
2.5220
2.4633
2.4633
2.5171
2.4438
2.5073
2.4829
2.4633
2.5220
2.4536
2.4976
2.5073
2.4682
2.5415
2.4829
2.5171
2.5513
2.4633
2.5220
2.5220
2.4487
2.4731
2.4194
2.4927
2.4731
2.3412
2.5220
2.8739
3.1378
2.5855
2.2678
2.4438
2.3851
2.3314
2.3754
2.4047
2.3803
2.4047
2.3754
2.5024
2.4487
2.4047
2.5073
2.4633
2.4878
2.4976
2.4976
2.5904
2.5415
2.5855
2.6100
2.5367
2.6051
2.6100
2.5855
2.6100
2.5122
2.5269
2.4829
2.3998
2.4731
2.3851
2.4194
2.4487
2.3851
2.4682
2.4389
2.4242
2.4976
2.4242
2.5073
2.4731
2.4340
2.5024
2.4536
2.4829
2.4878
2.4096
2.5220
2.4585
2.4291
2.4927
2.4340
2.5073
2.4927
2.4585
2.5171
2.4487
2.4585
2.5171
2.4536
2.5269
2.4927
2.4780
2.5269
2.4731
2.5269
2.5806
2.4829
2.5171
2.4585
2.4878
2.5073
2.3949
2.5073
2.4829
2.3558
2.4927
2.7859
3.2111
2.5758
2.2581
2.4438
2.3851
2.3851
2.4291
2.3851
2.4536
2.4438
2.4096
2.4927
2.4096
2.4633
2.5073
2.4536
2.5367
2.4633
2.5024
2.5660
2.4878
2.5709
2.5464
2.5758
2.6246
2.5367
2.5855
2.6002
2.4731
2.5269
2.4291
2.4340
2.4242
2.3558
2.4291
2.4291
2.3949
2.4585
2.4047
2.4633
2.4633
2.4145
2.4927
2.4585
2.4487
2.5024
2.4438
2.5024
2.4585
2.4438
2.4878
2.4536
2.4927
2.5024
2.4438
2.5269
2.4829
2.4829
2.5122
2.4487
2.5220
2.5024
2.4585
2.5171
2.4633
2.5024
2.5269
2.4829
2.5513
2.4878
2.5269
2.5464
2.4438
2.4780
2.4878
2.4145
2.4780
2.4145
2.4682
2.4242
2.3900
2.7468
3.1720
2.6637
2.3460
2.3558
2.3949
2.3998
2.3607
2.4438
2.4047
2.4389
2.4585
2.4242
2.5024
2.4682
2.4731
2.5269
2.4585
2.5269
2.5122
2.4927
2.5660
2.5122
2.5660
2.6149
2.5367
2.6100
2.5709
2.5464
2.5758
2.4438
2.4682
2.4291
2.3803
2.4340
2.3754
2.4096
2.4389
2.3754
2.4585
2.4242
2.4242
2.4927
2.4194
2.4780
2.4878
2.4340
2.5073
2.4340
2.4780
2.4878
2.4291
2.4829
2.4487
2.4438
2.5073
2.4291
2.4731
2.4780
2.4536
2.5122
2.4438
2.4731
2.5122
2.4389
2.5171
2.4731
2.4536
2.5220
2.4487
2.5171
2.5415
2.4927
2.5660
2.4927
2.4829
2.4780
2.3998
2.4927
2.4633
2.4194
2.4829
2.3460
2.4438
2.7761
3.1232
2.6833
2.2239
2.3216
2.3900
2.3754
2.4438
2.4291
2.4145
2.4927
2.4194
2.4536
2.5024
2.4633
2.5318
2.4780
2.4829
2.5220
2.4585
2.5415
2.5171
2.5415
2.5806
2.5171
2.5758
2.6051
2.5415
2.6002
2.5318
2.4829
2.4780
2.3509
2.4487
2.3949
2.3705
2.4291
2.3851
2.4438
2.4585
2.4096
2.4927
2.4438
2.4438
2.4927
2.4340
2.5024
2.4927
2.4536
2.5220
2.4536
2.4878
2.4927
2.4340
2.5073
2.4633
2.4585
2.5220
2.4389
2.4927
2.4927
2.4438
2.4976
2.4389
2.4780
2.5269
2.4633
2.5464
2.5171
2.4927
2.5758
2.5073
2.5562
2.5171
2.4536
2.5122
2.4536
2.4780
2.4976
2.3803
2.4927
2.6979
3.2014
2.7957
2.2727
2.4096
2.4145
2.3656
2.4536
2.3998
2.4291
2.4536
2.4096
2.5024
2.4633
2.4340
2.5024
2.4340
2.4878
2.4829
2.4682
2.5367
2.4780
2.5513
2.5611
2.4976
2.6295
2.5953
2.5513
2.6051
2.4927
2.5269
2.4731
2.4096
2.4487
2.3803
2.3949
2.4145
2.3558
2.4340
2.4145
2.4047
2.4682
2.4291
2.4829
2.4829
2.4291
2.4976
2.4438
2.4633
2.5122
2.4291
2.5073
2.4633
2.4585
2.4976
2.4438
2.4927
2.5073
2.4291
2.5024
2.4682
2.4780
2.5073
2.4536
2.5220
2.5024
2.4585
2.5318
2.4633
2.4976
2.4878
2.4585
2.5464
2.5122
2.5220
2.4487
2.4780
2.5024
2.4389
2.3900
2.5122
2.3900
2.4878
2.4438
2.4194
2.4047
2.5464
3.1085
2.9521
2.3558
2.4633
2.4487
2.4145
2.4633
2.4047
2.4633
2.4780
2.4291
2.5073
2.4682
2.4731
2.5122
2.4633
2.5220
2.5024
2.4780
2.5513
2.5073
2.5660
2.5758
2.5415
2.6197
2.5660
2.5758
2.5953
2.5024
2.5318
2.4633
2.3998
2.4487
2.3656
2.3998
2.4194
2.3656
2.4487
2.4047
2.4242
2.4731
2.3998
2.4682
2.4682
2.4340
2.5073
2.4242
2.4633
2.4829
2.4340
2.4829
2.4487
2.3460
2.4389
2.3656
2.4682
2.4927
2.4194
2.5073
2.4780
2.5122
2.5464
2.4633
2.5464
2.4878
2.4927
2.5220
2.4536
2.5220
2.5073
2.4633
2.5318
2.4487
2.4976
2.4487
2.4878
2.5806
2.5220
2.5415
2.5709
2.4829
2.5073
2.4780
2.4438
2.5073
2.4291
2.4633
2.4291
2.4096
2.7517
3.1916
2.6784
2.3216
2.3363
2.3998
2.3998
2.3656
2.4389
2.3851
2.4340
2.4585
2.4096
2.4927
2.4633
2.4438
2.5220
2.4487
2.5318
2.5073
2.4780
2.5562
2.5171
2.5415
2.5758
2.5318
2.6149
2.5758
2.5367
2.5611
2.4291
2.4536
2.4096
2.3656
2.4438
2.3851
2.3998
2.4389
2.3900
2.4682
2.4438
2.4340
2.4682
2.4194
2.4927
2.4976
2.4340
2.4927
2.4633
2.4682
2.5073
2.4389
2.4927
2.4878
2.4536
2.5024
2.4438
2.4976
2.4976
2.4389
2.5024
2.4633
2.4780
2.5171
2.4389
2.5122
2.4682
2.4438
2.5122
2.4389
2.4829
2.4731
2.4536
2.5513
2.4585
2.5073
2.5660
2.4878
2.5611
2.5171
2.4829
2.5318
2.4340
2.4487
2.5073
2.4145
2.5024
2.3656
2.4731
2.8641
3.1232
2.6100
2.3216
2.3656
2.4487
2.3558
2.4194
2.4438
2.3851
2.4585
2.4145
2.4194
2.4927
2.4242
2.5073
2.4731
2.4438
2.5464
2.4682
2.5122
2.5415
2.5073
2.5855
2.5464
2.5660
2.6197
2.5269
2.5709
2.5171
2.4682
2.4829
2.3900
2.4047
2.4194
2.3509
2.4291
2.3998
2.4047
2.4585
2.4047
2.4633
2.4731
2.4096
2.4976
2.4242
2.4780
2.4878
2.4291
2.5024
2.4536
2.4633
2.5024
2.4389
2.5024
2.4731
2.4536
2.5073
2.4340
2.4878
2.5171
2.4340
2.5122
2.4731
2.4585
2.5220
2.4438
2.5024
2.4927
2.4682
2.5269
2.4927
2.5269
2.5415
2.4829
2.5709
2.5024
2.4780
2.5122
2.4340
2.4682
2.4682
2.4194
2.4096
2.4096
2.7028
3.1769
2.6784
2.3069
2.3607
2.3607
2.4438
2.3656
2.4291
2.4194
2.4242
2.4878
2.4340
2.4780
2.4878
2.4389
2.5171
2.4780
2.4780
2.5562
2.4829
2.5513
2.5611
2.5269
2.6051
2.5513
2.5855
2.6149
2.5171
2.5562
2.4878
2.4438
2.4438
2.3558
2.4194
2.4194
2.3607
2.4340
2.4047
2.4242
2.4536
2.3949
2.4878
2.4682
2.4487
2.5024
2.4536
2.4976
2.5024
2.4585
2.5318
2.4585
2.4780
2.5122
2.4487
2.5122
2.4927
2.4780
2.5269
2.4536
2.5024
2.4976
2.4731
2.5415
2.4780
2.4878
2.5220
2.4487
2.5073
2.4878
2.4976
2.5611
2.4927
2.5611
2.5562
2.4927
2.5415
2.4585
2.4536
2.4927
2.4242
2.5073
2.4340
2.3900
2.6491
3.1232
2.9374
2.3363
2.3314
2.4438
2.3705
2.3998
2.4536
2.3949
2.4780
2.4536
2.4389
2.5073
2.4340
2.4878
2.5073
2.4536
2.5415
2.4976
2.5171
2.5611
2.4780
2.5758
2.5611
2.5562
2.6295
2.5464
2.5660
2.5367
2.4536
2.5122
2.4242
2.3851
2.4438
2.3656
2.4242
2.3851
2.3900
2.4487
2.4096
2.4536
2.4829
2.4389
2.4976
2.4438
2.4731
2.5073
2.4389
2.5024
2.4780
2.4389
2.5171
2.4242
2.4633
2.4878
2.4487
2.5122
2.4682
2.4633
2.5024
2.4389
2.5122
2.4780
2.4585
2.5269
2.4487
2.5024
2.4780
2.4585
2.5122
2.4731
2.4878
2.5367
2.4780
2.5318
2.4633
2.4536
2.5073
2.4291
2.4536
2.4927
2.4389
2.4780
2.4096
2.6344
3.2209
2.8250
2.3363
